SpectraSuite Data File
++++++++++++++++++++++++++++++++++++
Date: Wed Feb 11 16:50:56 ICT 2026
User: Administrator
Dark Spectrum Present: Yes
Reference Spectrum Present: No
Number of Sampled Component Spectra: 1
Spectrometers: MAYP113682
Integration Time (usec): 3000000 (MAYP113682)
Spectra Averaged: 1 (MAYP113682)
Boxcar Smoothing: 0 (MAYP113682)
Correct for Electrical Dark: No (MAYP113682)
Strobe/Lamp Enabled: No (MAYP113682)
Correct for Detector Non-linearity: No (MAYP113682)
Correct for Stray Light: No (MAYP113682)
Number of Pixels in Processed Spectrum: 2068
>>>>>Begin Processed Spectral Data<<<<<
-37534,58	5,00
-37414,56	-1,00
-37295,11	-2,00
-37176,24	0,00
-37057,95	21,00
-36940,22	-134,00
-36823,05	-53,00
-36706,45	0,00
-36590,40	-61,00
-36474,90	-12,00
-36359,95	-172,00
-36245,55	-89,00
-36131,68	-84,00
-36018,35	-64,00
-35905,55	28,00
-35793,29	-11,00
-35681,54	-131,00
-35570,32	-35,00
-35459,62	4,00
-35349,43	-93,00
-35239,75	-57,00
-35130,58	74,00
-35021,91	-112,00
-34913,74	-67,00
-34806,07	-139,00
-34698,89	-62,00
-34592,20	-56,00
-34486,00	-72,00
-34380,28	33,00
-34275,04	-84,00
-34170,27	-69,00
-34065,98	-105,00
-33962,16	-117,00
-33858,81	16,00
-33755,92	-64,00
-33653,49	-152,00
-33551,52	-51,00
-33450,01	-176,00
-33348,94	-108,00
-33248,33	-48,00
-33148,16	-115,00
-33048,43	-15,00
-32949,14	-82,00
-32850,29	-135,00
-32751,87	-97,00
-32653,89	-109,00
-32556,33	-132,00
-32459,20	-31,00
-32362,49	-25,00
-32266,19	-85,00
-32170,32	-92,00
-32074,86	-54,00
-31979,82	-99,00
-31885,18	-100,00
-31790,95	-121,00
-31697,12	-62,00
-31603,69	-65,00
-31510,67	-49,00
-31418,04	83,00
-31325,80	-117,00
-31233,95	-24,00
-31142,49	-75,00
-31051,42	-104,00
-30960,73	-30,00
-30870,43	-121,00
-30780,50	-144,00
-30690,95	-74,00
-30601,77	19,00
-30512,97	-49,00
-30424,53	-23,00
-30336,46	-185,00
-30248,76	-95,00
-30161,42	-106,00
-30074,44	-25,00
-29987,81	-131,00
-29901,55	-87,00
-29815,63	-22,00
-29730,07	-51,00
-29644,86	-7,00
-29560,00	-118,00
-29475,48	-25,00
-29391,30	-75,00
-29307,47	-46,00
-29223,97	22,00
-29140,81	-116,00
-29057,99	32,00
-28975,50	-71,00
-28893,34	-122,00
-28811,51	-136,00
-28730,00	-65,00
-28648,82	-33,00
-28567,97	54,00
-28487,43	-69,00
-28407,21	-163,00
-28327,32	-40,00
-28247,73	-163,00
-28168,46	-19,00
-28089,50	-89,00
-28010,85	-164,00
-27932,51	-7,00
-27854,48	-96,00
-27776,75	-47,00
-27699,32	-47,00
-27622,19	-45,00
-27545,37	-12,00
-27468,84	-95,00
-27392,60	-28,00
-27316,66	-58,00
-27241,01	-40,00
-27165,66	-57,00
-27090,59	-161,00
-27015,81	-18,00
-26941,31	-127,00
-26867,10	-7,00
-26793,17	-52,00
-26719,52	-120,00
-26646,15	-133,00
-26573,06	-34,00
-26500,24	-108,00
-26427,70	-70,00
-26355,43	-40,00
-26283,43	-88,00
-26211,71	-67,00
-26140,25	26,00
-26069,06	7,00
-25998,13	3,00
-25927,46	-63,00
-25857,06	-193,00
-25786,92	-71,00
-25717,04	-50,00
-25647,42	-84,00
-25578,05	-16,00
-25508,94	-78,00
-25440,09	-32,00
-25371,48	-67,00
-25303,13	-128,00
-25235,02	23,00
-25167,17	-86,00
-25099,56	-126,00
-25032,19	-105,00
-24965,07	-99,00
-24898,20	-10,00
-24831,56	-26,00
-24765,17	-76,00
-24699,01	-120,00
-24633,10	-131,00
-24567,41	-31,00
-24501,97	-111,00
-24436,75	-190,00
-24371,77	-25,00
-24307,03	-50,00
-24242,51	-144,00
-24178,22	-184,00
-24114,16	-66,00
-24050,32	-42,00
-23986,71	-22,00
-23923,32	-13,00
-23860,16	-36,00
-23797,22	-49,00
-23734,50	-19,00
-23672,00	-37,00
-23609,71	-108,00
-23547,65	-123,00
-23485,80	41,00
-23424,16	-98,00
-23362,74	-109,00
-23301,53	-180,00
-23240,54	-112,00
-23179,75	-2,00
-23119,17	-143,00
-23058,80	-63,00
-22998,64	7,00
-22938,68	-87,00
-22878,93	-52,00
-22819,39	-100,00
-22760,04	-77,00
-22700,90	-127,00
-22641,96	-59,00
-22583,22	-136,00
-22524,68	-173,00
-22466,33	-152,00
-22408,19	-74,00
-22350,23	-137,00
-22292,48	-90,00
-22234,92	-73,00
-22177,55	-144,00
-22120,37	-9,00
-22063,38	-53,00
-22006,58	-48,00
-21949,98	-47,00
-21893,56	-21,00
-21837,33	-119,00
-21781,28	-109,00
-21725,42	-115,00
-21669,74	20,00
-21614,25	11,00
-21558,94	-139,00
-21503,81	-113,00
-21448,86	-129,00
-21394,10	7,00
-21339,51	-14,00
-21285,10	-78,00
-21230,86	-63,00
-21176,81	-28,00
-21122,93	-70,00
-21069,22	-20,00
-21015,69	-131,00
-20962,33	-41,00
-20909,14	3,00
-20856,13	2,00
-20803,28	6,00
-20750,61	-35,00
-20698,10	-18,00
-20645,76	-117,00
-20593,59	-26,00
-20541,59	-50,00
-20489,75	-52,00
-20438,07	-114,00
-20386,56	104,00
-20335,22	-118,00
-20284,03	-15,00
-20233,01	9,00
-20182,15	-91,00
-20131,45	-82,00
-20080,91	-96,00
-20030,52	-141,00
-19980,30	-144,00
-19930,23	-68,00
-19880,32	-47,00
-19830,56	-76,00
-19780,96	-128,00
-19731,52	-35,00
-19682,23	-16,00
-19633,09	-234,00
-19584,10	-90,00
-19535,26	-90,00
-19486,58	-63,00
-19438,04	-89,00
-19389,66	-150,00
-19341,42	0,00
-19293,33	-140,00
-19245,39	-61,00
-19197,60	-158,00
-19149,95	-115,00
-19102,45	-16,00
-19055,09	-186,00
-19007,87	-95,00
-18960,80	-26,00
-18913,87	-58,00
-18867,09	-141,00
-18820,44	-42,00
-18773,94	-23,00
-18727,57	-164,00
-18681,35	-20,00
-18635,26	-18,00
-18589,31	-140,00
-18543,50	-70,00
-18497,83	-6,00
-18452,29	-37,00
-18406,89	-143,00
-18361,63	-83,00
-18316,50	-87,00
-18271,50	-177,00
-18226,63	-89,00
-18181,90	-45,00
-18137,30	49,00
-18092,84	-97,00
-18048,50	-56,00
-18004,29	-128,00
-17960,22	-4,00
-17916,27	-106,00
-17872,45	-92,00
-17828,76	-17,00
-17785,20	7,00
-17741,77	-16,00
-17698,46	-5,00
-17655,28	-126,00
-17612,22	-79,00
-17569,29	-78,00
-17526,48	-45,00
-17483,79	-83,00
-17441,23	-106,00
-17398,79	-95,00
-17356,48	65,00
-17314,28	-72,00
-17272,21	-11,00
-17230,26	-159,00
-17188,42	-78,00
-17146,71	-55,00
-17105,12	-101,00
-17063,64	-5,00
-17022,28	-108,00
-16981,04	-45,00
-16939,92	-79,00
-16898,91	-87,00
-16858,02	-68,00
-16817,25	-220,00
-16776,59	-17,00
-16736,04	-200,00
-16695,61	-66,00
-16655,29	-57,00
-16615,09	-87,00
-16574,99	-25,00
-16535,01	-141,00
-16495,15	-68,00
-16455,39	-8,00
-16415,74	-120,00
-16376,21	-84,00
-16336,78	-88,00
-16297,46	-59,00
-16258,26	-114,00
-16219,16	-66,00
-16180,17	-37,00
-16141,28	-67,00
-16102,51	-8,00
-16063,84	-41,00
-16025,27	-104,00
-15986,82	-87,00
-15948,46	-7,00
-15910,22	-50,00
-15872,07	43,00
-15834,04	-156,00
-15796,10	-35,00
-15758,27	-63,00
-15720,54	53,00
-15682,91	-131,00
-15645,39	-93,00
-15607,97	2,00
-15570,64	12,00
-15533,42	-26,00
-15496,30	-185,00
-15459,28	-25,00
-15422,36	-25,00
-15385,54	-82,00
-15348,82	0,00
-15312,19	-72,00
-15275,66	10,00
-15239,23	-100,00
-15202,90	-125,00
-15166,67	-108,00
-15130,53	-54,00
-15094,48	-77,00
-15058,54	-79,00
-15022,68	-6,00
-14986,93	-6,00
-14951,26	-83,00
-14915,69	-188,00
-14880,22	-41,00
-14844,84	-156,00
-14809,55	-21,00
-14774,35	-105,00
-14739,25	-82,00
-14704,24	-107,00
-14669,32	-20,00
-14634,49	-23,00
-14599,75	-104,00
-14565,10	-92,00
-14530,55	-159,00
-14496,08	-77,00
-14461,70	-73,00
-14427,41	-69,00
-14393,21	-169,00
-14359,10	-149,00
-14325,07	-71,00
-14291,14	-14,00
-14257,29	-143,00
-14223,52	-108,00
-14189,85	-219,00
-14156,26	-62,00
-14122,76	33,00
-14089,34	-79,00
-14056,01	-227,00
-14022,76	-56,00
-13989,60	-18,00
-13956,52	-103,00
-13923,53	-83,00
-13890,62	-70,00
-13857,79	-153,00
-13825,05	-82,00
-13792,39	25,00
-13759,81	-57,00
-13727,31	-73,00
-13694,90	-64,00
-13662,57	19,00
-13630,31	-99,00
-13598,14	-40,00
-13566,05	-143,00
-13534,05	-158,00
-13502,12	-44,00
-13470,27	-105,00
-13438,50	-70,00
-13406,80	-33,00
-13375,19	-104,00
-13343,66	-51,00
-13312,20	-16,00
-13280,83	-88,00
-13249,53	31,00
-13218,30	-102,00
-13187,16	-86,00
-13156,09	-81,00
-13125,10	-122,00
-13094,18	-98,00
-13063,34	-90,00
-13032,58	28,00
-13001,89	-97,00
-12971,28	-48,00
-12940,74	-74,00
-12910,27	-47,00
-12879,88	-72,00
-12849,57	12,00
-12819,33	-144,00
-12789,16	-87,00
-12759,06	-23,00
-12729,04	-178,00
-12699,09	-877,00
-12669,21	-40,00
-12639,41	-95,00
-12609,68	-16,00
-12580,02	-177,00
-12550,43	-101,00
-12520,91	-45,00
-12491,46	-67,00
-12462,08	-51,00
-12432,77	-125,00
-12403,54	-64,00
-12374,37	-27,00
-12345,27	-97,00
-12316,24	-49,00
-12287,29	-37,00
-12258,40	-47,00
-12229,57	-82,00
-12200,82	33,00
-12172,14	-132,00
-12143,52	39,00
-12114,97	-79,00
-12086,49	-1,00
-12058,07	-45,00
-12029,73	19,00
-12001,44	-121,00
-11973,23	53,00
-11945,08	-132,00
-11917,00	-72,00
-11888,98	-49,00
-11861,03	-108,00
-11833,15	-22,00
-11805,32	-124,00
-11777,57	-77,00
-11749,88	24,00
-11722,25	-157,00
-11694,69	-82,00
-11667,19	-173,00
-11639,75	-4,00
-11612,38	-69,00
-11585,07	-46,00
-11557,83	26,00
-11530,65	-116,00
-11503,53	-8,00
-11476,47	-17,00
-11449,48	-78,00
-11422,54	-63,00
-11395,67	-68,00
-11368,86	-78,00
-11342,11	-192,00
-11315,43	-88,00
-11288,80	12,00
-11262,23	-17,00
-11235,73	-28,00
-11209,28	-32,00
-11182,90	-13,00
-11156,57	15,00
-11130,31	-131,00
-11104,10	-66,00
-11077,96	53,00
-11051,87	-101,00
-11025,84	-90,00
-10999,87	-86,00
-10973,96	-51,00
-10948,11	-20,00
-10922,31	-55,00
-10896,58	-140,00
-10870,90	-173,00
-10845,28	-55,00
-10819,71	-24,00
-10794,20	-134,00
-10768,75	-49,00
-10743,36	-213,00
-10718,02	-39,00
-10692,74	-52,00
-10667,52	-220,00
-10642,35	-49,00
-10617,24	-171,00
-10592,18	-17,00
-10567,18	-150,00
-10542,23	-32,00
-10517,34	-77,00
-10492,51	-126,00
-10467,72	-95,00
-10443,00	-88,00
-10418,32	53,00
-10393,70	-82,00
-10369,14	-62,00
-10344,63	-73,00
-10320,17	-112,00
-10295,77	-69,00
-10271,42	-59,00
-10247,12	-5,00
-10222,88	-77,00
-10198,68	-41,00
-10174,54	42,00
-10150,46	-130,00
-10126,42	-82,00
-10102,44	-129,00
-10078,51	-91,00
-10054,63	-200,00
-10030,80	-99,00
-10007,03	-58,00
-9983,30	-175,00
-9959,63	37,00
-9936,01	-79,00
-9912,44	-83,00
-9888,92	-90,00
-9865,44	-171,00
-9842,02	-83,00
-9818,65	-8,00
-9795,33	-33,00
-9772,06	-121,00
-9748,84	-129,00
-9725,67	-133,00
-9702,55	-116,00
-9679,47	-55,00
-9656,45	-187,00
-9633,47	-179,00
-9610,55	-189,00
-9587,67	-117,00
-9564,84	-143,00
-9542,06	-159,00
-9519,32	-96,00
-9496,64	-187,00
-9474,00	-222,00
-9451,41	-228,00
-9428,87	-307,00
-9406,37	-290,00
-9383,92	-256,00
-9361,52	-275,00
-9339,17	-301,00
-9316,86	-288,00
-9294,60	-283,00
-9272,38	-381,00
-9250,21	-225,00
-9228,09	-128,00
-9206,01	-187,00
-9183,98	-233,00
-9162,00	-301,00
-9140,06	-330,00
-9118,16	-354,00
-9096,31	-284,00
-9074,51	-341,00
-9052,75	-259,00
-9031,04	-213,00
-9009,37	-246,00
-8987,74	-309,00
-8966,16	-335,00
-8944,63	-402,00
-8923,14	-368,00
-8901,69	-328,00
-8880,29	-249,00
-8858,93	-234,00
-8837,61	-86,00
-8816,34	-133,00
-8795,11	-54,00
-8773,92	-140,00
-8752,78	-158,00
-8731,68	-107,00
-8710,62	-136,00
-8689,61	-112,00
-8668,63	-148,00
-8647,70	-36,00
-8626,82	-32,00
-8605,97	-36,00
-8585,17	-116,00
-8564,41	-215,00
-8543,69	-158,00
-8523,01	-252,00
-8502,37	-188,00
-8481,78	-180,00
-8461,23	8,00
-8440,71	-95,00
-8420,24	90,00
-8399,81	48,00
-8379,42	81,00
-8359,08	-155,00
-8338,77	-15,00
-8318,50	-46,00
-8298,27	-67,00
-8278,09	-62,00
-8257,94	29,00
-8237,83	88,00
-8217,76	18,00
-8197,74	67,00
-8177,75	-31,00
-8157,80	106,00
-8137,89	3,00
-8118,02	-16,00
-8098,19	86,00
-8078,40	161,00
-8058,65	50,00
-8038,93	65,00
-8019,26	55,00
-7999,62	6,00
-7980,02	16,00
-7960,46	5,00
-7940,94	47,00
-7921,46	-60,00
-7902,01	78,00
-7882,60	-90,00
-7863,23	-7,00
-7843,90	-20,00
-7824,61	-69,00
-7805,35	48,00
-7786,13	-2,00
-7766,95	70,00
-7747,80	36,00
-7728,69	-23,00
-7709,62	97,00
-7690,59	-36,00
-7671,59	59,00
-7652,63	55,00
-7633,70	100,00
-7614,81	104,00
-7595,96	98,00
-7577,15	-61,00
-7558,37	-3,00
-7539,62	23,00
-7520,91	-8,00
-7502,24	36,00
-7483,60	36,00
-7465,00	15,00
-7446,44	-69,00
-7427,91	18,00
-7409,41	-153,00
-7390,95	1,00
-7372,53	-75,00
-7354,14	-221,00
-7335,78	-96,00
-7317,46	-135,00
-7299,18	21,00
-7280,92	-3,00
-7262,71	16,00
-7244,52	-29,00
-7226,38	21,00
-7208,26	45,00
-7190,18	15,00
-7172,14	-32,00
-7154,12	-31,00
-7136,15	-47,00
-7118,20	29,00
-7100,29	-28,00
-7082,41	97,00
-7064,57	-26,00
-7046,76	10,00
-7028,98	-100,00
-7011,24	-172,00
-6993,53	-159,00
-6975,85	-65,00
-6958,20	-214,00
-6940,59	-169,00
-6923,01	-130,00
-6905,46	-29,00
-6887,94	-187,00
-6870,46	-78,00
-6853,01	86,00
-6835,59	-73,00
-6818,21	-77,00
-6800,85	-6,00
-6783,53	-170,00
-6766,24	-258,00
-6748,98	-204,00
-6731,76	-303,00
-6714,56	-268,00
-6697,40	-265,00
-6680,26	-194,00
-6663,16	-213,00
-6646,09	-96,00
-6629,05	-93,00
-6612,05	-119,00
-6595,07	-33,00
-6578,13	-73,00
-6561,21	-97,00
-6544,33	-150,00
-6527,47	-359,00
-6510,65	-153,00
-6493,86	-288,00
-6477,10	-296,00
-6460,36	-187,00
-6443,66	-200,00
-6426,99	-230,00
-6410,35	-228,00
-6393,74	-170,00
-6377,16	-77,00
-6360,61	-33,00
-6344,09	-62,00
-6327,59	-191,00
-6311,13	-215,00
-6294,70	-116,00
-6278,29	-88,00
-6261,92	-62,00
-6245,58	-127,00
-6229,26	20,00
-6212,97	-220,00
-6196,72	-106,00
-6180,49	-174,00
-6164,29	-301,00
-6148,12	-196,00
-6131,98	-211,00
-6115,86	-196,00
-6099,78	-413,00
-6083,72	-332,00
-6067,69	-313,00
-6051,69	-117,00
-6035,72	-231,00
-6019,78	-90,00
-6003,87	-184,00
-5987,98	-189,00
-5972,12	-103,00
-5956,29	-152,00
-5940,49	-193,00
-5924,71	-124,00
-5908,96	-180,00
-5893,24	-251,00
-5877,55	-91,00
-5861,89	-284,00
-5846,25	-187,00
-5830,64	-233,00
-5815,05	-255,00
-5799,50	-146,00
-5783,97	-101,00
-5768,47	-131,00
-5752,99	-29,00
-5737,55	-83,00
-5722,12	-155,00
-5706,73	-91,00
-5691,36	-141,00
-5676,02	-307,00
-5660,71	-241,00
-5645,42	-85,00
-5630,16	-239,00
-5614,92	-186,00
-5599,71	-159,00
-5584,53	-219,00
-5569,37	-132,00
-5554,24	665,00
-5539,14	-53,00
-5524,06	-82,00
-5509,01	-176,00
-5493,98	-87,00
-5478,98	-139,00
-5464,00	-209,00
-5449,05	3,00
-5434,13	-219,00
-5419,23	-203,00
-5404,36	-212,00
-5389,51	-207,00
-5374,69	-79,00
-5359,89	-184,00
-5345,12	-41,00
-5330,37	-179,00
-5315,65	97,00
-5300,95	-111,00
-5286,28	-39,00
-5271,63	-167,00
-5257,01	-202,00
-5242,41	-285,00
-5227,84	-255,00
-5213,29	-214,00
-5198,76	-163,00
-5184,26	-205,00
-5169,79	-200,00
-5155,33	-150,00
-5140,91	-269,00
-5126,51	-184,00
-5112,13	-62,00
-5097,77	-248,00
-5083,44	-172,00
-5069,13	-105,00
-5054,85	-198,00
-5040,59	-83,00
-5026,36	-243,00
-5012,15	-285,00
-4997,96	-52,00
-4983,80	-118,00
-4969,66	-166,00
-4955,54	-114,00
-4941,44	-108,00
-4927,37	-60,00
-4913,33	-69,00
-4899,30	-11,00
-4885,30	-12,00
-4871,33	-86,00
-4857,37	-37,00
-4843,44	-125,00
-4829,53	-206,00
-4815,65	-16,00
-4801,79	-175,00
-4787,95	-171,00
-4774,13	-221,00
-4760,34	-102,00
-4746,56	-226,00
-4732,82	-42,00
-4719,09	-131,00
-4705,38	-108,00
-4691,70	-43,00
-4678,04	9,00
-4664,41	-155,00
-4650,79	-62,00
-4637,20	-108,00
-4623,63	-54,00
-4610,08	-108,00
-4596,56	-115,00
-4583,05	-207,00
-4569,57	-99,00
-4556,11	-238,00
-4542,67	-129,00
-4529,25	-50,00
-4515,86	-31,00
-4502,49	-29,00
-4489,13	-85,00
-4475,80	-40,00
-4462,49	-73,00
-4449,21	9,00
-4435,94	-137,00
-4422,70	32,00
-4409,47	25,00
-4396,27	-133,00
-4383,09	-132,00
-4369,93	-133,00
-4356,79	-129,00
-4343,67	-58,00
-4330,58	-62,00
-4317,50	-144,00
-4304,45	-101,00
-4291,41	-83,00
-4278,40	-46,00
-4265,41	-115,00
-4252,44	25,00
-4239,49	61,00
-4226,55	-50,00
-4213,65	-30,00
-4200,76	-60,00
-4187,89	-3,00
-4175,04	4,00
-4162,21	-148,00
-4149,40	-52,00
-4136,61	-117,00
-4123,85	-20,00
-4111,10	-103,00
-4098,37	-143,00
-4085,66	2,00
-4072,98	-68,00
-4060,31	-42,00
-4047,66	-139,00
-4035,04	-87,00
-4022,43	-23,00
-4009,84	-42,00
-3997,27	-26,00
-3984,72	-115,00
-3972,19	-136,00
-3959,69	-117,00
-3947,20	-47,00
-3934,73	-15,00
-3922,27	-79,00
-3909,84	-92,00
-3897,43	2,00
-3885,04	85,00
-3872,67	-140,00
-3860,31	-17,00
-3847,98	-33,00
-3835,66	47,00
-3823,36	-100,00
-3811,09	-89,00
-3798,83	35,00
-3786,59	-77,00
-3774,37	-132,00
-3762,17	36,00
-3749,98	-153,00
-3737,82	-30,00
-3725,67	-162,00
-3713,55	-30,00
-3701,44	-95,00
-3689,35	-143,00
-3677,28	-34,00
-3665,22	-87,00
-3653,19	-181,00
-3641,17	-101,00
-3629,18	-88,00
-3617,20	-80,00
-3605,24	-45,00
-3593,30	-80,00
-3581,37	-57,00
-3569,47	-31,00
-3557,58	-63,00
-3545,71	-98,00
-3533,86	16,00
-3522,02	9,00
-3510,21	-229,00
-3498,41	-127,00
-3486,63	-134,00
-3474,87	-144,00
-3463,12	-35,00
-3451,40	-26,00
-3439,69	-105,00
-3428,00	-73,00
-3416,33	-21,00
-3404,67	-82,00
-3393,03	-123,00
-3381,41	-135,00
-3369,81	-149,00
-3358,22	-153,00
-3346,66	-53,00
-3335,10	15,00
-3323,57	16,00
-3312,06	-73,00
-3300,56	11,00
-3289,08	-36,00
-3277,61	-203,00
-3266,16	-131,00
-3254,73	-81,00
-3243,32	-25,00
-3231,92	-74,00
-3220,55	-37,00
-3209,18	0,00
-3197,84	-72,00
-3186,51	-66,00
-3175,20	-149,00
-3163,90	-84,00
-3152,63	-193,00
-3141,36	-72,00
-3130,12	-78,00
-3118,89	-12,00
-3107,68	-59,00
-3096,49	-109,00
-3085,31	-111,00
-3074,15	-113,00
-3063,00	-65,00
-3051,87	-13,00
-3040,76	-81,00
-3029,67	-91,00
-3018,59	-48,00
-3007,52	-68,00
-2996,48	-269,00
-2985,44	-49,00
-2974,43	43,00
-2963,43	-117,00
-2952,45	-45,00
-2941,48	-80,00
-2930,53	-57,00
-2919,60	16,00
-2908,68	-155,00
-2897,78	-112,00
-2886,89	-103,00
-2876,02	-177,00
-2865,17	-136,00
-2854,33	0,00
-2843,50	-111,00
-2832,70	9,00
-2821,90	-8,00
-2811,13	-100,00
-2800,37	-73,00
-2789,62	-129,00
-2778,89	-24,00
-2768,18	-27,00
-2757,48	-92,00
-2746,80	-78,00
-2736,13	-118,00
-2725,48	-8,00
-2714,84	-115,00
-2704,22	-147,00
-2693,61	-46,00
-2683,02	-125,00
-2672,45	-55,00
-2661,89	-64,00
-2651,34	-49,00
-2640,81	-100,00
-2630,30	-31,00
-2619,80	-45,00
-2609,31	-148,00
-2598,84	-59,00
-2588,39	-88,00
-2577,95	-56,00
-2567,52	-36,00
-2557,11	-154,00
-2546,71	-138,00
-2536,33	-134,00
-2525,97	-75,00
-2515,62	-91,00
-2505,28	-12,00
-2494,96	-197,00
-2484,65	-186,00
-2474,36	-17,00
-2464,08	2,00
-2453,82	22,00
-2443,57	-48,00
-2433,33	-112,00
-2423,11	-86,00
-2412,91	-27,00
-2402,72	-98,00
-2392,54	-135,00
-2382,38	-61,00
-2372,23	-69,00
-2362,09	-309,00
-2351,97	-30,00
-2341,87	-31,00
-2331,78	-46,00
-2321,70	-94,00
-2311,64	0,00
-2301,59	41,00
-2291,55	-66,00
-2281,53	-30,00
-2271,53	-129,00
-2261,53	-161,00
-2251,55	7,00
-2241,59	-70,00
-2231,64	1,00
-2221,70	-161,00
-2211,78	-118,00
-2201,87	-183,00
-2191,97	-42,00
-2182,09	-50,00
-2172,22	-95,00
-2162,37	-128,00
-2152,53	-5,00
-2142,70	-92,00
-2132,89	-88,00
-2123,09	-109,00
-2113,30	-3,00
-2103,53	-149,00
-2093,77	-57,00
-2084,02	-76,00
-2074,29	-77,00
-2064,57	-150,00
-2054,86	-124,00
-2045,17	-64,00
-2035,49	-61,00
-2025,82	-101,00
-2016,17	0,00
-2006,53	-92,00
-1996,91	-70,00
-1987,29	-105,00
-1977,69	17,00
-1968,11	51,00
-1958,53	-73,00
-1948,97	-66,00
-1939,42	-9,00
-1929,89	-106,00
-1920,37	29,00
-1910,86	-62,00
-1901,36	-66,00
-1891,88	-133,00
-1882,41	-73,00
-1872,95	-96,00
-1863,51	37,00
-1854,08	-130,00
-1844,66	-32,00
-1835,26	-62,00
-1825,86	-107,00
-1816,48	-86,00
-1807,11	-50,00
-1797,76	-189,00
-1788,42	-21,00
-1779,09	-116,00
-1769,77	104,00
-1760,47	-74,00
-1751,17	-93,00
-1741,89	21,00
-1732,63	-83,00
-1723,37	-18,00
-1714,13	-43,00
-1704,90	-81,00
-1695,68	10,00
-1686,48	-132,00
-1677,29	56,00
-1668,11	-110,00
-1658,94	19,00
-1649,78	-1,00
-1640,64	-164,00
-1631,51	-36,00
-1622,39	-103,00
-1613,28	-57,00
-1604,19	-61,00
-1595,10	3,00
-1586,03	-48,00
-1576,97	-55,00
-1567,93	-20,00
-1558,89	-134,00
-1549,87	-129,00
-1540,86	-79,00
-1531,86	2,00
-1522,87	-156,00
-1513,90	-83,00
-1504,93	-139,00
-1495,98	-42,00
-1487,04	-73,00
-1478,12	96,00
-1469,20	-89,00
-1460,30	-63,00
-1451,40	-115,00
-1442,52	-69,00
-1433,65	-33,00
-1424,80	-14,00
-1415,95	-29,00
-1407,12	-24,00
-1398,30	-192,00
-1389,48	-157,00
-1380,69	-93,00
-1371,90	-42,00
-1363,12	-134,00
-1354,36	79,00
-1345,60	-88,00
-1336,86	-129,00
-1328,13	-39,00
-1319,41	-88,00
-1310,70	-87,00
-1302,01	-139,00
-1293,32	-90,00
-1284,65	-116,00
-1275,99	-79,00
-1267,33	-39,00
-1258,69	-13,00
-1250,06	-49,00
-1241,45	15,00
-1232,84	-82,00
-1224,25	-81,00
-1215,66	-102,00
-1207,09	-137,00
-1198,53	75,00
-1189,97	-74,00
-1181,43	-37,00
-1172,91	-104,00
-1164,39	-104,00
-1155,88	-80,00
-1147,38	-18,00
-1138,90	-74,00
-1130,43	-120,00
-1121,96	-51,00
-1113,51	-73,00
-1105,07	12,00
-1096,64	-23,00
-1088,22	-12,00
-1079,81	-62,00
-1071,41	-52,00
-1063,02	-106,00
-1054,65	-127,00
-1046,28	-9,00
-1037,92	-109,00
-1029,58	-91,00
-1021,24	-151,00
-1012,92	-73,00
-1004,61	-102,00
-996,30	-25,00
-988,01	-25,00
-979,73	-60,00
-971,46	-152,00
-963,20	-196,00
-954,95	-50,00
-946,71	-38,00
-938,48	-96,00
-930,26	-118,00
-922,06	-81,00
-913,86	-86,00
-905,67	-66,00
-897,49	-81,00
-889,33	-34,00
-881,17	-85,00
-873,02	13,00
-864,89	-145,00
-856,76	-91,00
-848,65	11,00
-840,54	-1,00
-832,45	-63,00
-824,36	-96,00
-816,29	-33,00
-808,22	-204,00
-800,17	-84,00
-792,12	53,00
-784,09	-102,00
-776,06	-134,00
-768,05	-23,00
-760,04	50,00
-752,05	-11,00
-744,07	-76,00
-736,09	-142,00
-728,13	6,00
-720,17	-60,00
-712,23	-143,00
-704,29	-83,00
-696,37	-71,00
-688,45	-162,00
-680,55	-38,00
-672,65	-56,00
-664,77	-34,00
-656,89	-96,00
-649,03	-67,00
-641,17	-60,00
-633,32	56,00
-625,49	-65,00
-617,66	-76,00
-609,84	4,00
-602,03	-6,00
-594,23	-51,00
-586,45	-41,00
-578,67	-147,00
-570,90	-73,00
-563,14	-71,00
-555,39	-102,00
-547,65	-54,00
-539,91	-152,00
-532,19	80,00
-524,48	25,00
-516,78	-99,00
-509,08	-66,00
-501,40	-99,00
-493,72	-16,00
-486,06	-25,00
-478,40	-114,00
-470,76	76,00
-463,12	-20,00
-455,49	-59,00
-447,87	-37,00
-440,26	-100,00
-432,66	-35,00
-425,07	87,00
-417,49	-33,00
-409,92	-7,00
-402,35	6,00
-394,80	-48,00
-387,25	-87,00
-379,72	9,00
-372,19	-31,00
-364,67	-16,00
-357,17	-2,00
-349,67	22,00
-342,18	-10,00
-334,69	84,00
-327,22	36,00
-319,76	-96,00
-312,30	-79,00
-304,86	-8,00
-297,42	-37,00
-290,00	28,00
-282,58	-80,00
-275,17	81,00
-267,77	26,00
-260,37	91,00
-252,99	11,00
-245,62	71,00
-238,25	14,00
-230,90	79,00
-223,55	97,00
-216,21	96,00
-208,88	128,00
-201,56	116,00
-194,25	192,00
-186,94	258,00
-179,65	288,00
-172,36	245,00
-165,08	326,00
-157,81	355,00
-150,55	272,00
-143,30	492,00
-136,06	442,00
-128,82	528,00
-121,60	636,00
-114,38	662,00
-107,17	709,00
-99,97	873,00
-92,78	1081,00
-85,60	1210,00
-78,42	1495,00
-71,25	1653,00
-64,10	1793,00
-56,95	2182,00
-49,81	2698,00
-42,67	3335,00
-35,55	4187,00
-28,43	5465,00
-21,33	9017,00
-14,23	28663,00
-7,14	56043,00
-0,05	55763,00
7,02	55513,00
14,09	55717,00
21,14	29602,00
28,19	12156,00
35,23	7464,00
42,27	5515,00
49,29	4489,00
56,31	3756,00
63,32	3055,00
70,32	2476,00
77,31	2124,00
84,29	1785,00
91,27	1537,00
98,23	1418,00
105,19	1384,00
112,14	1238,00
119,09	1637,00
126,02	2706,00
132,95	2934,00
139,87	3156,00
146,78	3063,00
153,68	3074,00
160,58	2918,00
167,46	2717,00
174,34	2852,00
181,21	2796,00
188,08	2894,00
194,93	2630,00
201,78	2922,00
208,62	2787,00
215,45	2807,00
222,27	2767,00
229,09	2765,00
235,90	2726,00
242,70	2676,00
249,49	2579,00
256,27	2534,00
263,05	2544,00
269,82	2633,00
276,58	2532,00
283,33	2465,00
290,08	2567,00
296,82	2422,00
303,55	2521,00
310,27	2415,00
316,98	2361,00
323,69	2303,00
330,39	2395,00
337,08	2348,00
343,76	2303,00
350,44	2379,00
357,11	2282,00
363,77	2356,00
370,42	2325,00
377,07	2312,00
383,71	2358,00
390,34	2239,00
396,96	2369,00
403,58	2276,00
410,19	2190,00
416,79	2297,00
423,38	2392,00
429,97	2186,00
436,55	2103,00
443,12	2079,00
449,68	1985,00
456,24	2140,00
462,79	2133,00
469,33	2006,00
475,86	1993,00
482,39	2077,00
488,91	2062,00
495,42	1919,00
501,93	1937,00
508,42	1862,00
514,91	1971,00
521,40	1910,00
527,87	1848,00
534,34	1793,00
540,80	1688,00
547,25	1796,00
553,70	1924,00
560,14	1703,00
566,57	1844,00
573,00	1794,00
579,41	1802,00
585,83	1792,00
592,23	1778,00
598,62	1625,00
605,01	1730,00
611,40	1734,00
617,77	1757,00
624,14	1680,00
630,50	1689,00
636,85	1622,00
643,20	1705,00
649,54	1674,00
655,87	1587,00
662,20	1658,00
668,52	1641,00
674,83	1662,00
681,13	1654,00
687,43	1505,00
693,72	1549,00
700,00	1567,00
706,28	1554,00
712,55	1596,00
718,81	1548,00
725,07	1503,00
731,32	1500,00
737,56	1593,00
743,79	1589,00
750,02	1579,00
756,24	1478,00
762,46	1526,00
768,67	1485,00
774,87	1399,00
781,06	1510,00
787,25	1510,00
793,43	1420,00
799,60	1431,00
805,77	1368,00
811,93	1362,00
818,08	1483,00
824,23	1569,00
830,37	1447,00
836,50	1436,00
842,63	1507,00
848,75	1489,00
854,87	1455,00
860,97	1431,00
867,07	1355,00
873,17	1318,00
879,25	1307,00
885,33	1423,00
891,41	1399,00
897,47	1354,00
903,53	1297,00
909,59	1253,00
915,63	1401,00
921,67	1256,00
927,71	1309,00
933,74	1253,00
939,76	1268,00
945,77	1267,00
951,78	1248,00
957,78	1211,00
963,78	1222,00
969,77	1173,00
975,75	1275,00
981,72	1294,00
987,69	1197,00
993,66	1246,00
999,61	1199,00
1005,56	1224,00
1011,51	1266,00
1017,44	1335,00
1023,37	1162,00
1029,30	1147,00
1035,22	1295,00
1041,13	1095,00
1047,03	1285,00
1052,93	1296,00
1058,83	1479,00
1064,71	1574,00
1070,59	1386,00
1076,47	1211,00
1082,33	1200,00
1088,20	1192,00
1094,05	1108,00
1099,90	1189,00
1105,74	1133,00
1111,58	1231,00
1117,41	1135,00
1123,23	1196,00
1129,05	1495,00
1134,86	1438,00
1140,67	1191,00
1146,47	1057,00
1152,26	1086,00
1158,05	1073,00
1163,83	1061,00
1169,60	1141,00
1175,37	1090,00
1181,13	1119,00
1186,89	1044,00
1192,64	1057,00
1198,38	1070,00
1204,12	1153,00
1209,85	992,00
1215,58	902,00
1221,30	1053,00
1227,02	1092,00
1232,72	1152,00
1238,43	1172,00
1244,12	1065,00
1249,81	1104,00
1255,50	1134,00
1261,17	1020,00
1266,85	1072,00
1272,51	1231,00
1278,17	1112,00
1283,83	1327,00
1289,47	1409,00
1295,12	1523,00
1300,75	1421,00
1306,38	1344,00
1312,01	1282,00
1317,63	1172,00
1323,24	1209,00
1328,85	1149,00
1334,45	1269,00
1340,04	1212,00
1345,63	1166,00
1351,22	1144,00
1356,80	1120,00
1362,37	1296,00
1367,93	1243,00
1373,49	1172,00
1379,05	1388,00
1384,60	1320,00
1390,14	1236,00
1395,68	1229,00
1401,21	1292,00
1406,74	1325,00
1412,26	1354,00
1417,77	1399,00
1423,28	1534,00
1428,78	1475,00
1434,28	1504,00
1439,77	1645,00
1445,26	1511,00
1450,74	1536,00
1456,22	1355,00
1461,68	1299,00
1467,15	1302,00
1472,61	1282,00
1478,06	1294,00
1483,51	1163,00
1488,95	1167,00
1494,38	1064,00
1499,81	1109,00
1505,24	1188,00
1510,65	1095,00
1516,07	969,00
1521,48	897,00
1526,88	1028,00
1532,27	980,00
1537,67	922,00
1543,05	1042,00
1548,43	1083,00
1553,81	1088,00
1559,18	849,00
1564,54	1033,00
1569,90	1010,00
1575,25	983,00
1580,60	958,00
1585,94	985,00
1591,28	949,00
1596,61	990,00
1601,93	1099,00
1607,25	937,00
1612,57	952,00
1617,88	959,00
1623,18	974,00
1628,48	927,00
1633,77	879,00
1639,06	946,00
1644,34	834,00
1649,62	949,00
1654,89	1000,00
1660,16	898,00
1665,42	845,00
1670,67	866,00
1675,92	875,00
1681,17	867,00
1686,41	878,00
1691,64	793,00
1696,87	917,00
1702,10	760,00
1707,32	832,00
1712,53	878,00
1717,74	786,00
1722,94	823,00
1728,14	762,00
1733,33	814,00
1738,52	753,00
1743,70	746,00
1748,88	844,00
1754,05	589,00
1759,22	820,00
1764,38	668,00
1769,53	776,00
1774,69	605,00
1779,83	738,00
1784,97	811,00
1790,11	683,00
1795,24	749,00
1800,36	629,00
1805,48	774,00
1810,60	626,00
1815,71	642,00
1820,82	622,00
1825,92	582,00
1831,01	605,00
1836,10	700,00
1841,19	626,00
1846,26	509,00
1851,34	608,00
1856,41	732,00
1861,47	650,00
1866,53	612,00
1871,59	629,00
1876,64	558,00
1881,68	624,00
1886,72	591,00
1891,76	600,00
1896,79	634,00
1901,81	511,00
1906,83	600,00
1911,85	491,00
1916,86	588,00
1921,86	559,00
1926,86	618,00
1931,86	475,00
1936,85	554,00
1941,83	595,00
1946,81	484,00
1951,79	519,00
1956,76	571,00
1961,72	457,00
1966,68	517,00
1971,64	505,00
1976,59	379,00
1981,54	479,00
1986,48	541,00
1991,42	385,00
1996,35	478,00
2001,27	493,00
2006,20	443,00
2011,11	406,00
2016,03	448,00
2020,93	382,00
2025,84	401,00
2030,73	452,00
2035,63	365,00
2040,52	400,00
2045,40	427,00
2050,28	396,00
2055,15	349,00
2060,02	442,00
2064,89	389,00
2069,75	301,00
2074,60	462,00
2079,46	269,00
2084,30	394,00
2089,14	424,00
2093,98	266,00
2098,81	341,00
2103,64	393,00
2108,46	261,00
2113,28	420,00
2118,09	363,00
2122,90	439,00
2127,70	437,00
2132,50	350,00
2137,30	278,00
2142,09	250,00
2146,87	393,00
2151,66	348,00
2156,43	326,00
2161,20	434,00
2165,97	343,00
2170,73	292,00
2175,49	333,00
2180,24	392,00
2184,99	322,00
2189,74	156,00
2194,48	263,00
2199,21	352,00
2203,94	232,00
2208,67	329,00
2213,39	289,00
2218,11	257,00
2222,82	284,00
2227,53	312,00
2232,23	239,00
2236,93	366,00
2241,63	229,00
2246,32	355,00
2251,00	274,00
2255,68	240,00
2260,36	379,00
2265,03	288,00
2269,70	281,00
2274,36	253,00
2279,02	342,00
2283,68	120,00
2288,33	286,00
2292,97	312,00
2297,61	201,00
2302,25	154,00
2306,88	286,00
2311,51	167,00
2316,14	158,00
2320,75	212,00
2325,37	270,00
2329,98	308,00
2334,59	237,00
2339,19	300,00
2343,79	122,00
2348,38	293,00
2352,97	258,00
2357,55	220,00
2362,13	242,00
2366,71	231,00
2371,28	358,00
2375,85	176,00
2380,41	265,00
2384,97	258,00
2389,52	220,00
2394,07	131,00
2398,62	182,00
2403,16	189,00
2407,70	174,00
2412,23	147,00
2416,76	254,00
2421,29	145,00
2425,81	94,00
2430,32	237,00
2434,84	207,00
2439,34	179,00
2443,85	269,00
2448,35	282,00
2452,84	216,00
2457,33	135,00
2461,82	219,00
2466,30	238,00
2470,78	134,00
2475,25	86,00
2479,72	58,00
2484,19	166,00
2488,65	191,00
2493,11	194,00
2497,56	151,00
2502,01	208,00
2506,46	131,00
2510,90	132,00
2515,34	196,00
2519,77	84,00
2524,20	74,00
2528,62	276,00
2533,04	76,00
2537,46	106,00
2541,87	175,00
2546,28	221,00
2550,68	209,00
2555,08	118,00
2559,48	218,00
2563,87	97,00
2568,26	228,00
2572,64	106,00
2577,02	221,00
2581,40	221,00
2585,77	90,00
2590,14	211,00
2594,50	134,00
2598,86	126,00
2603,22	88,00
2607,57	64,00
2611,92	8,00
2616,26	42,00
2620,60	94,00
2624,94	113,00
2629,27	44,00
2633,60	69,00
2637,92	63,00
2642,24	9,00
2646,56	22,00
2650,87	110,00
2655,18	113,00
2659,48	73,00
2663,78	191,00
2668,08	11,00
2672,37	161,00
2676,66	145,00
2680,95	234,00
2685,23	110,00
2689,50	134,00
2693,78	97,00
2698,05	218,00
2702,31	113,00
2706,57	105,00
2710,83	109,00
2715,08	260,00
2719,33	137,00
2723,58	149,00
2727,82	123,00
2732,06	200,00
2736,29	94,00
2740,53	241,00
2744,75	77,00
2748,97	119,00
2753,19	159,00
2757,41	239,00
2761,62	129,00
2765,83	196,00
2770,03	63,00
2774,23	151,00
2778,43	70,00
2782,62	34,00
2786,81	101,00
2791,00	46,00
2795,18	225,00
2799,35	142,00
2803,53	164,00
2807,70	167,00
2811,86	110,00
2816,03	121,00
2820,19	121,00
2824,34	172,00
2828,49	259,00
2832,64	222,00
2836,78	278,00
2840,92	291,00
2845,06	442,00
2849,19	541,00
2853,32	547,00
2857,45	437,00
2861,57	452,00
2865,69	356,00
2869,80	482,00
2873,91	320,00
2878,02	472,00
2882,12	533,00
2886,22	550,00
2890,32	444,00
2894,41	401,00
2898,50	340,00
2902,58	306,00
2906,67	390,00
2910,74	357,00
2914,82	171,00
2918,89	220,00
2922,96	294,00
2927,02	335,00
2931,08	297,00
2935,13	159,00
2939,19	247,00
2943,24	250,00
2947,28	198,00
2951,32	100,00
2955,36	142,00
2959,40	77,00
2963,43	70,00
2967,46	-34,00
2971,48	98,00
2975,50	142,00
2979,52	166,00
2983,53	64,00
2987,54	-31,00
2991,55	-7,00
2995,55	55,00
2999,55	2,00
3003,54	85,00
3007,54	-75,00
3011,53	20,00
3015,51	-10,00
3019,49	107,00
3023,47	-43,00
3027,45	-4,00
3031,42	95,00
3035,39	55,00
3039,35	-16,00
3043,31	17,00
3047,27	26,00
3051,22	-4,00
3055,17	-26,00
3059,12	43,00
3063,06	95,00
3067,00	66,00
3070,94	16,00
3074,87	-27,00
3078,80	-80,00
3082,73	53,00
3086,65	37,00
3090,57	-58,00
3094,49	89,00
3098,40	79,00
3102,31	-31,00
3106,22	-22,00
3110,12	-31,00
3114,02	-74,00
3117,92	-28,00
3121,81	67,00
3125,70	42,00
3129,58	35,00
3133,47	-57,00
3137,34	-56,00
3141,22	-9,00
3145,09	120,00
3148,96	-75,00
3152,83	97,00
3156,69	1,00
3160,55	38,00
3164,40	-18,00
3168,26	17,00
3172,10	23,00
3175,95	-33,00
3179,79	35,00
3183,63	-1,00
3187,47	74,00
3191,30	-119,00
3195,13	-72,00
3198,95	-34,00
3202,78	-18,00
3206,60	48,00
3210,41	-65,00
3214,23	110,00
3218,03	42,00
3221,84	-79,00
3225,64	39,00
3229,44	53,00
3233,24	-57,00
3237,03	-78,00
3240,82	-10,00
3244,61	-51,00
3248,39	46,00
3252,17	-32,00
3255,95	-76,00
3259,72	-8,00
3263,49	-23,00
3267,26	8,00
3271,03	132,00
3274,79	71,00
3278,54	38,00
3282,30	51,00
3286,05	-3,00
3289,80	-85,00
3293,54	-4,00
3297,29	-60,00
3301,02	78,00
3304,76	11,00
3308,49	18,00
3312,22	80,00
3315,95	2,00
3319,67	18,00
3323,39	-22,00
3327,10	-30,00
3330,82	20,00
3334,53	-9,00
3338,24	-49,00
3341,94	-23,00
3345,64	17,00
3349,34	41,00
3353,03	-6,00
3356,72	31,00
3360,41	32,00
3364,10	-100,00
3367,78	-85,00
3371,46	92,00
3375,13	-20,00
3378,81	30,00
3382,48	38,00
3386,14	14,00
3389,81	26,00
3393,47	-79,00
3397,12	45,00
3400,78	-65,00
3404,43	15,00
3408,08	-138,00
3411,72	-5,00
3415,36	14,00
3419,00	-39,00
3422,64	50,00
3426,27	72,00
3429,90	31,00
3433,53	32,00
3437,15	-68,00
3440,77	-48,00
3444,39	-52,00
3448,00	7,00
3451,62	-26,00
3455,22	18,00
3458,83	-104,00
3462,43	-89,00
3466,03	5,00
3469,63	4,00
3473,22	-43,00
3476,81	51,00
3480,40	-102,00
3483,99	-19,00
3487,57	-76,00
3491,15	-73,00
3494,72	-28,00
3498,29	21,00
3501,86	-8,00
3505,43	-84,00
3508,99	-73,00
3512,56	-63,00
3516,11	-36,00
3519,67	-155,00
3523,22	-93,00
3526,77	-37,00
3530,32	-82,00
3533,86	35,00
3537,40	-225,00
3540,94	-31,00
3544,47	-91,00
3548,00	4,00
3551,53	-108,00
3555,06	-50,00
3558,58	-104,00
3562,10	-66,00
3565,62	-34,00
3569,13	-147,00
3572,64	-124,00
3576,15	-79,00
3579,66	-186,00
3583,16	-68,00
3586,66	-117,00
3590,16	-50,00
3593,65	-67,00
3597,14	-24,00
3600,63	-42,00
3604,11	-172,00
3607,60	-4,00
3611,08	-60,00
3614,55	29,00
3618,03	-123,00
3621,50	-110,00
3624,97	-55,00
3628,43	-54,00
3631,90	-92,00
3635,36	-14,00
3638,81	-118,00
3642,27	-65,00
3645,72	-38,00
3649,17	-75,00
3652,61	-69,00
3656,06	-110,00
3659,50	-82,00
3662,93	-83,00
3666,37	-95,00
3669,80	-106,00
3673,23	-17,00
3676,65	-76,00
3680,08	-186,00
3683,50	-36,00
3686,92	-12,00
3690,33	-64,00
3693,74	-48,00
3697,15	-80,00
3700,56	12,00
3703,96	10,00
3707,36	-161,00
3710,76	-27,00
3714,16	29,00
3717,55	-54,00
3720,94	-29,00
3724,33	-12,00
3727,71	-134,00
3731,10	-24,00
3734,48	-63,00
3737,85	-83,00
3741,23	-49,00
3744,60	-67,00
3747,97	-82,00
3751,33	-35,00
3754,69	-8,00
3758,05	-87,00
3761,41	-41,00
3764,77	3,00
3768,12	-94,00
3771,47	-32,00
3774,82	16,00
3778,16	-5,00
3781,50	8,00
3784,84	-2,00
3788,18	-4,00
>>>>>End Processed Spectral Data<<<<<
