SpectraSuite Data File
++++++++++++++++++++++++++++++++++++
Date: Wed Feb 11 16:52:59 ICT 2026
User: Administrator
Dark Spectrum Present: Yes
Reference Spectrum Present: No
Number of Sampled Component Spectra: 1
Spectrometers: MAYP113682
Integration Time (usec): 3000000 (MAYP113682)
Spectra Averaged: 1 (MAYP113682)
Boxcar Smoothing: 0 (MAYP113682)
Correct for Electrical Dark: No (MAYP113682)
Strobe/Lamp Enabled: No (MAYP113682)
Correct for Detector Non-linearity: No (MAYP113682)
Correct for Stray Light: No (MAYP113682)
Number of Pixels in Processed Spectrum: 2068
>>>>>Begin Processed Spectral Data<<<<<
-37534,58	4,00
-37414,56	-2,00
-37295,11	5,00
-37176,24	4,00
-37057,95	-74,00
-36940,22	-123,00
-36823,05	1,00
-36706,45	6,00
-36590,40	-31,00
-36474,90	-58,00
-36359,95	-127,00
-36245,55	-34,00
-36131,68	-82,00
-36018,35	-1,00
-35905,55	55,00
-35793,29	42,00
-35681,54	35,00
-35570,32	-5,00
-35459,62	23,00
-35349,43	-36,00
-35239,75	8,00
-35130,58	52,00
-35021,91	-101,00
-34913,74	-65,00
-34806,07	-130,00
-34698,89	-37,00
-34592,20	-58,00
-34486,00	-37,00
-34380,28	-57,00
-34275,04	-94,00
-34170,27	-45,00
-34065,98	-66,00
-33962,16	-63,00
-33858,81	71,00
-33755,92	-117,00
-33653,49	-165,00
-33551,52	-34,00
-33450,01	-199,00
-33348,94	-55,00
-33248,33	-54,00
-33148,16	-73,00
-33048,43	-69,00
-32949,14	-84,00
-32850,29	-120,00
-32751,87	51,00
-32653,89	-173,00
-32556,33	-144,00
-32459,20	-31,00
-32362,49	-74,00
-32266,19	-77,00
-32170,32	15,00
-32074,86	-53,00
-31979,82	-48,00
-31885,18	-75,00
-31790,95	-91,00
-31697,12	-3,00
-31603,69	-122,00
-31510,67	-94,00
-31418,04	19,00
-31325,80	-31,00
-31233,95	-49,00
-31142,49	-54,00
-31051,42	-53,00
-30960,73	-77,00
-30870,43	-52,00
-30780,50	-12,00
-30690,95	-58,00
-30601,77	-73,00
-30512,97	-72,00
-30424,53	-7,00
-30336,46	-105,00
-30248,76	-79,00
-30161,42	-112,00
-30074,44	-10,00
-29987,81	-131,00
-29901,55	-43,00
-29815,63	-57,00
-29730,07	41,00
-29644,86	5,00
-29560,00	-57,00
-29475,48	-58,00
-29391,30	-140,00
-29307,47	-75,00
-29223,97	-60,00
-29140,81	-76,00
-29057,99	-15,00
-28975,50	2,00
-28893,34	-126,00
-28811,51	-159,00
-28730,00	-51,00
-28648,82	12,00
-28567,97	-60,00
-28487,43	-48,00
-28407,21	-114,00
-28327,32	-29,00
-28247,73	-212,00
-28168,46	38,00
-28089,50	-11,00
-28010,85	-123,00
-27932,51	27,00
-27854,48	-79,00
-27776,75	-95,00
-27699,32	-31,00
-27622,19	-13,00
-27545,37	-55,00
-27468,84	-105,00
-27392,60	30,00
-27316,66	-72,00
-27241,01	-110,00
-27165,66	10,00
-27090,59	-26,00
-27015,81	-62,00
-26941,31	-53,00
-26867,10	-75,00
-26793,17	-57,00
-26719,52	-38,00
-26646,15	-55,00
-26573,06	39,00
-26500,24	-132,00
-26427,70	-68,00
-26355,43	-25,00
-26283,43	-27,00
-26211,71	-32,00
-26140,25	-37,00
-26069,06	-15,00
-25998,13	5,00
-25927,46	-118,00
-25857,06	-100,00
-25786,92	-25,00
-25717,04	-45,00
-25647,42	-45,00
-25578,05	26,00
-25508,94	-118,00
-25440,09	-61,00
-25371,48	-83,00
-25303,13	-32,00
-25235,02	11,00
-25167,17	90,00
-25099,56	-121,00
-25032,19	-92,00
-24965,07	-95,00
-24898,20	-14,00
-24831,56	20,00
-24765,17	-71,00
-24699,01	21,00
-24633,10	15,00
-24567,41	-132,00
-24501,97	-38,00
-24436,75	-42,00
-24371,77	-119,00
-24307,03	-164,00
-24242,51	-52,00
-24178,22	-65,00
-24114,16	-153,00
-24050,32	35,00
-23986,71	-30,00
-23923,32	-97,00
-23860,16	-86,00
-23797,22	-21,00
-23734,50	-96,00
-23672,00	-5,00
-23609,71	-20,00
-23547,65	47,00
-23485,80	18,00
-23424,16	-119,00
-23362,74	-93,00
-23301,53	-128,00
-23240,54	-98,00
-23179,75	-47,00
-23119,17	-31,00
-23058,80	-105,00
-22998,64	-7,00
-22938,68	-39,00
-22878,93	-137,00
-22819,39	-149,00
-22760,04	-23,00
-22700,90	-40,00
-22641,96	-28,00
-22583,22	-73,00
-22524,68	-117,00
-22466,33	-99,00
-22408,19	-95,00
-22350,23	-95,00
-22292,48	-9,00
-22234,92	-101,00
-22177,55	-149,00
-22120,37	-44,00
-22063,38	-19,00
-22006,58	-17,00
-21949,98	27,00
-21893,56	-58,00
-21837,33	-62,00
-21781,28	-101,00
-21725,42	-38,00
-21669,74	99,00
-21614,25	-8,00
-21558,94	-56,00
-21503,81	-27,00
-21448,86	-73,00
-21394,10	18,00
-21339,51	49,00
-21285,10	-80,00
-21230,86	-40,00
-21176,81	-24,00
-21122,93	-15,00
-21069,22	-109,00
-21015,69	26,00
-20962,33	-81,00
-20909,14	-70,00
-20856,13	1,00
-20803,28	-75,00
-20750,61	-5,00
-20698,10	-2,00
-20645,76	-54,00
-20593,59	-5,00
-20541,59	-109,00
-20489,75	-4,00
-20438,07	52,00
-20386,56	-15,00
-20335,22	-35,00
-20284,03	-43,00
-20233,01	71,00
-20182,15	-71,00
-20131,45	-141,00
-20080,91	-169,00
-20030,52	-30,00
-19980,30	-73,00
-19930,23	-14,00
-19880,32	-10,00
-19830,56	-3,00
-19780,96	-40,00
-19731,52	-47,00
-19682,23	6,00
-19633,09	-210,00
-19584,10	-62,00
-19535,26	-24,00
-19486,58	-47,00
-19438,04	52,00
-19389,66	-89,00
-19341,42	-40,00
-19293,33	-169,00
-19245,39	-67,00
-19197,60	-94,00
-19149,95	-85,00
-19102,45	-12,00
-19055,09	-72,00
-19007,87	-23,00
-18960,80	69,00
-18913,87	21,00
-18867,09	-131,00
-18820,44	-61,00
-18773,94	41,00
-18727,57	-54,00
-18681,35	-5,00
-18635,26	-54,00
-18589,31	-65,00
-18543,50	10,00
-18497,83	33,00
-18452,29	-63,00
-18406,89	-71,00
-18361,63	-30,00
-18316,50	-79,00
-18271,50	1,00
-18226,63	-114,00
-18181,90	-67,00
-18137,30	-17,00
-18092,84	-66,00
-18048,50	-62,00
-18004,29	5,00
-17960,22	53,00
-17916,27	-74,00
-17872,45	13,00
-17828,76	-36,00
-17785,20	-93,00
-17741,77	-43,00
-17698,46	-24,00
-17655,28	-131,00
-17612,22	-3,00
-17569,29	-100,00
-17526,48	-45,00
-17483,79	-46,00
-17441,23	-136,00
-17398,79	-56,00
-17356,48	-41,00
-17314,28	-39,00
-17272,21	94,00
-17230,26	-113,00
-17188,42	-18,00
-17146,71	-57,00
-17105,12	-143,00
-17063,64	-68,00
-17022,28	-56,00
-16981,04	-27,00
-16939,92	6,00
-16898,91	-55,00
-16858,02	-32,00
-16817,25	-113,00
-16776,59	-37,00
-16736,04	-43,00
-16695,61	11,00
-16655,29	-71,00
-16615,09	-82,00
-16574,99	27,00
-16535,01	-24,00
-16495,15	-94,00
-16455,39	-34,00
-16415,74	-173,00
-16376,21	-33,00
-16336,78	-166,00
-16297,46	-35,00
-16258,26	3,00
-16219,16	-10,00
-16180,17	-44,00
-16141,28	-64,00
-16102,51	42,00
-16063,84	-94,00
-16025,27	27,00
-15986,82	-46,00
-15948,46	-20,00
-15910,22	-59,00
-15872,07	35,00
-15834,04	-99,00
-15796,10	5,00
-15758,27	-29,00
-15720,54	-9,00
-15682,91	-70,00
-15645,39	-156,00
-15607,97	25,00
-15570,64	-38,00
-15533,42	-109,00
-15496,30	-131,00
-15459,28	-26,00
-15422,36	-5,00
-15385,54	-89,00
-15348,82	-30,00
-15312,19	-47,00
-15275,66	-72,00
-15239,23	-22,00
-15202,90	-89,00
-15166,67	-36,00
-15130,53	-194,00
-15094,48	32,00
-15058,54	-57,00
-15022,68	64,00
-14986,93	68,00
-14951,26	-32,00
-14915,69	-1,00
-14880,22	85,00
-14844,84	-82,00
-14809,55	-39,00
-14774,35	-128,00
-14739,25	-194,00
-14704,24	-119,00
-14669,32	-32,00
-14634,49	-38,00
-14599,75	-6,00
-14565,10	-120,00
-14530,55	-118,00
-14496,08	-109,00
-14461,70	-116,00
-14427,41	-57,00
-14393,21	-166,00
-14359,10	-63,00
-14325,07	-24,00
-14291,14	-23,00
-14257,29	-6,00
-14223,52	-8,00
-14189,85	-166,00
-14156,26	-22,00
-14122,76	-7,00
-14089,34	-137,00
-14056,01	-139,00
-14022,76	-83,00
-13989,60	-80,00
-13956,52	-119,00
-13923,53	-106,00
-13890,62	-116,00
-13857,79	-173,00
-13825,05	-109,00
-13792,39	-66,00
-13759,81	-78,00
-13727,31	-78,00
-13694,90	-123,00
-13662,57	28,00
-13630,31	-148,00
-13598,14	14,00
-13566,05	-66,00
-13534,05	-84,00
-13502,12	-63,00
-13470,27	-8,00
-13438,50	-84,00
-13406,80	-32,00
-13375,19	-83,00
-13343,66	-63,00
-13312,20	7,00
-13280,83	-96,00
-13249,53	-14,00
-13218,30	-139,00
-13187,16	-21,00
-13156,09	-6,00
-13125,10	-60,00
-13094,18	-82,00
-13063,34	-54,00
-13032,58	27,00
-13001,89	-96,00
-12971,28	1,00
-12940,74	-156,00
-12910,27	-61,00
-12879,88	-64,00
-12849,57	-82,00
-12819,33	-130,00
-12789,16	27,00
-12759,06	-12,00
-12729,04	38,00
-12699,09	-969,00
-12669,21	-67,00
-12639,41	-62,00
-12609,68	-78,00
-12580,02	0,00
-12550,43	-114,00
-12520,91	-38,00
-12491,46	-177,00
-12462,08	-63,00
-12432,77	-60,00
-12403,54	-37,00
-12374,37	7,00
-12345,27	-108,00
-12316,24	-30,00
-12287,29	-78,00
-12258,40	-40,00
-12229,57	25,00
-12200,82	-75,00
-12172,14	-32,00
-12143,52	4,00
-12114,97	-49,00
-12086,49	-107,00
-12058,07	-29,00
-12029,73	-6,00
-12001,44	-24,00
-11973,23	-28,00
-11945,08	-115,00
-11917,00	-19,00
-11888,98	-52,00
-11861,03	-155,00
-11833,15	-48,00
-11805,32	-100,00
-11777,57	-124,00
-11749,88	-48,00
-11722,25	-56,00
-11694,69	11,00
-11667,19	-170,00
-11639,75	-46,00
-11612,38	-102,00
-11585,07	-128,00
-11557,83	-77,00
-11530,65	-155,00
-11503,53	4,00
-11476,47	-19,00
-11449,48	-27,00
-11422,54	-77,00
-11395,67	41,00
-11368,86	-45,00
-11342,11	-147,00
-11315,43	-19,00
-11288,80	-112,00
-11262,23	-63,00
-11235,73	-82,00
-11209,28	-12,00
-11182,90	-41,00
-11156,57	-13,00
-11130,31	-85,00
-11104,10	-22,00
-11077,96	-104,00
-11051,87	-52,00
-11025,84	-20,00
-10999,87	-86,00
-10973,96	-130,00
-10948,11	-70,00
-10922,31	33,00
-10896,58	-93,00
-10870,90	-52,00
-10845,28	-30,00
-10819,71	29,00
-10794,20	-95,00
-10768,75	-98,00
-10743,36	-164,00
-10718,02	-89,00
-10692,74	-82,00
-10667,52	-35,00
-10642,35	-36,00
-10617,24	-67,00
-10592,18	-44,00
-10567,18	-153,00
-10542,23	-30,00
-10517,34	-13,00
-10492,51	21,00
-10467,72	-108,00
-10443,00	5,00
-10418,32	73,00
-10393,70	0,00
-10369,14	-44,00
-10344,63	-27,00
-10320,17	-20,00
-10295,77	-8,00
-10271,42	-41,00
-10247,12	73,00
-10222,88	61,00
-10198,68	27,00
-10174,54	33,00
-10150,46	13,00
-10126,42	35,00
-10102,44	9,00
-10078,51	-39,00
-10054,63	-41,00
-10030,80	-16,00
-10007,03	34,00
-9983,30	5,00
-9959,63	191,00
-9936,01	-30,00
-9912,44	81,00
-9888,92	81,00
-9865,44	118,00
-9842,02	176,00
-9818,65	198,00
-9795,33	181,00
-9772,06	231,00
-9748,84	59,00
-9725,67	137,00
-9702,55	229,00
-9679,47	204,00
-9656,45	183,00
-9633,47	175,00
-9610,55	287,00
-9587,67	320,00
-9564,84	309,00
-9542,06	447,00
-9519,32	343,00
-9496,64	416,00
-9474,00	538,00
-9451,41	527,00
-9428,87	509,00
-9406,37	573,00
-9383,92	324,00
-9361,52	546,00
-9339,17	432,00
-9316,86	578,00
-9294,60	708,00
-9272,38	828,00
-9250,21	886,00
-9228,09	1112,00
-9206,01	961,00
-9183,98	847,00
-9162,00	751,00
-9140,06	657,00
-9118,16	763,00
-9096,31	780,00
-9074,51	854,00
-9052,75	1084,00
-9031,04	843,00
-9009,37	665,00
-8987,74	452,00
-8966,16	481,00
-8944,63	429,00
-8923,14	375,00
-8901,69	480,00
-8880,29	478,00
-8858,93	632,00
-8837,61	813,00
-8816,34	916,00
-8795,11	836,00
-8773,92	711,00
-8752,78	550,00
-8731,68	600,00
-8710,62	659,00
-8689,61	717,00
-8668,63	686,00
-8647,70	808,00
-8626,82	833,00
-8605,97	700,00
-8585,17	752,00
-8564,41	608,00
-8543,69	600,00
-8523,01	417,00
-8502,37	405,00
-8481,78	698,00
-8461,23	739,00
-8440,71	685,00
-8420,24	827,00
-8399,81	888,00
-8379,42	872,00
-8359,08	729,00
-8338,77	634,00
-8318,50	631,00
-8298,27	638,00
-8278,09	555,00
-8257,94	688,00
-8237,83	810,00
-8217,76	763,00
-8197,74	899,00
-8177,75	756,00
-8157,80	819,00
-8137,89	640,00
-8118,02	594,00
-8098,19	536,00
-8078,40	698,00
-8058,65	654,00
-8038,93	733,00
-8019,26	657,00
-7999,62	599,00
-7980,02	590,00
-7960,46	518,00
-7940,94	523,00
-7921,46	556,00
-7902,01	477,00
-7882,60	404,00
-7863,23	507,00
-7843,90	520,00
-7824,61	566,00
-7805,35	644,00
-7786,13	543,00
-7766,95	588,00
-7747,80	604,00
-7728,69	501,00
-7709,62	601,00
-7690,59	619,00
-7671,59	740,00
-7652,63	631,00
-7633,70	643,00
-7614,81	618,00
-7595,96	577,00
-7577,15	391,00
-7558,37	514,00
-7539,62	527,00
-7520,91	572,00
-7502,24	702,00
-7483,60	624,00
-7465,00	561,00
-7446,44	515,00
-7427,91	489,00
-7409,41	266,00
-7390,95	322,00
-7372,53	272,00
-7354,14	125,00
-7335,78	229,00
-7317,46	355,00
-7299,18	444,00
-7280,92	480,00
-7262,71	615,00
-7244,52	581,00
-7226,38	539,00
-7208,26	578,00
-7190,18	483,00
-7172,14	447,00
-7154,12	498,00
-7136,15	465,00
-7118,20	499,00
-7100,29	575,00
-7082,41	646,00
-7064,57	620,00
-7046,76	453,00
-7028,98	434,00
-7011,24	182,00
-6993,53	236,00
-6975,85	328,00
-6958,20	158,00
-6940,59	158,00
-6923,01	297,00
-6905,46	360,00
-6887,94	259,00
-6870,46	435,00
-6853,01	558,00
-6835,59	485,00
-6818,21	331,00
-6800,85	368,00
-6783,53	183,00
-6766,24	91,00
-6748,98	56,00
-6731,76	119,00
-6714,56	-52,00
-6697,40	112,00
-6680,26	86,00
-6663,16	91,00
-6646,09	221,00
-6629,05	330,00
-6612,05	360,00
-6595,07	448,00
-6578,13	306,00
-6561,21	285,00
-6544,33	86,00
-6527,47	102,00
-6510,65	69,00
-6493,86	-5,00
-6477,10	-114,00
-6460,36	198,00
-6443,66	51,00
-6426,99	-46,00
-6410,35	120,00
-6393,74	64,00
-6377,16	164,00
-6360,61	103,00
-6344,09	298,00
-6327,59	123,00
-6311,13	200,00
-6294,70	223,00
-6278,29	208,00
-6261,92	390,00
-6245,58	249,00
-6229,26	299,00
-6212,97	228,00
-6196,72	266,00
-6180,49	91,00
-6164,29	-160,00
-6148,12	-17,00
-6131,98	-8,00
-6115,86	-59,00
-6099,78	25,00
-6083,72	-171,00
-6067,69	-144,00
-6051,69	1,00
-6035,72	-68,00
-6019,78	124,00
-6003,87	70,00
-5987,98	171,00
-5972,12	343,00
-5956,29	168,00
-5940,49	117,00
-5924,71	137,00
-5908,96	-44,00
-5893,24	-32,00
-5877,55	-41,00
-5861,89	-109,00
-5846,25	24,00
-5830,64	32,00
-5815,05	-125,00
-5799,50	30,00
-5783,97	88,00
-5768,47	122,00
-5752,99	131,00
-5737,55	139,00
-5722,12	147,00
-5706,73	261,00
-5691,36	43,00
-5676,02	-2,00
-5660,71	-61,00
-5645,42	80,00
-5630,16	5,00
-5614,92	24,00
-5599,71	85,00
-5584,53	-30,00
-5569,37	120,00
-5554,24	45,00
-5539,14	153,00
-5524,06	88,00
-5509,01	42,00
-5493,98	91,00
-5478,98	104,00
-5464,00	9,00
-5449,05	92,00
-5434,13	39,00
-5419,23	-17,00
-5404,36	-32,00
-5389,51	16,00
-5374,69	105,00
-5359,89	164,00
-5345,12	327,00
-5330,37	142,00
-5315,65	205,00
-5300,95	201,00
-5286,28	74,00
-5271,63	63,00
-5257,01	32,00
-5242,41	-104,00
-5227,84	-164,00
-5213,29	21,00
-5198,76	-59,00
-5184,26	-139,00
-5169,79	4,00
-5155,33	32,00
-5140,91	13,00
-5126,51	150,00
-5112,13	211,00
-5097,77	16,00
-5083,44	-100,00
-5069,13	-58,00
-5054,85	-35,00
-5040,59	132,00
-5026,36	-13,00
-5012,15	-48,00
-4997,96	116,00
-4983,80	45,00
-4969,66	60,00
-4955,54	33,00
-4941,44	116,00
-4927,37	196,00
-4913,33	215,00
-4899,30	322,00
-4885,30	260,00
-4871,33	75,00
-4857,37	60,00
-4843,44	17,00
-4829,53	-12,00
-4815,65	113,00
-4801,79	-23,00
-4787,95	35,00
-4774,13	-54,00
-4760,34	69,00
-4746,56	-104,00
-4732,82	70,00
-4719,09	18,00
-4705,38	178,00
-4691,70	263,00
-4678,04	195,00
-4664,41	73,00
-4650,79	76,00
-4637,20	73,00
-4623,63	30,00
-4610,08	10,00
-4596,56	58,00
-4583,05	123,00
-4569,57	104,00
-4556,11	-68,00
-4542,67	33,00
-4529,25	40,00
-4515,86	98,00
-4502,49	212,00
-4489,13	170,00
-4475,80	54,00
-4462,49	141,00
-4449,21	98,00
-4435,94	8,00
-4422,70	69,00
-4409,47	245,00
-4396,27	102,00
-4383,09	-14,00
-4369,93	8,00
-4356,79	28,00
-4343,67	-55,00
-4330,58	36,00
-4317,50	36,00
-4304,45	10,00
-4291,41	51,00
-4278,40	-88,00
-4265,41	0,00
-4252,44	68,00
-4239,49	117,00
-4226,55	116,00
-4213,65	76,00
-4200,76	62,00
-4187,89	-21,00
-4175,04	32,00
-4162,21	-36,00
-4149,40	-42,00
-4136,61	-74,00
-4123,85	-68,00
-4111,10	-48,00
-4098,37	-39,00
-4085,66	-71,00
-4072,98	22,00
-4060,31	6,00
-4047,66	-100,00
-4035,04	-1,00
-4022,43	-38,00
-4009,84	15,00
-3997,27	-51,00
-3984,72	-50,00
-3972,19	-30,00
-3959,69	-71,00
-3947,20	69,00
-3934,73	-47,00
-3922,27	-21,00
-3909,84	-101,00
-3897,43	-36,00
-3885,04	85,00
-3872,67	-156,00
-3860,31	73,00
-3847,98	-122,00
-3835,66	39,00
-3823,36	-36,00
-3811,09	-36,00
-3798,83	35,00
-3786,59	-45,00
-3774,37	-178,00
-3762,17	-53,00
-3749,98	-26,00
-3737,82	-41,00
-3725,67	-29,00
-3713,55	-57,00
-3701,44	-57,00
-3689,35	-58,00
-3677,28	-52,00
-3665,22	24,00
-3653,19	-137,00
-3641,17	-82,00
-3629,18	-73,00
-3617,20	-129,00
-3605,24	95,00
-3593,30	-101,00
-3581,37	-40,00
-3569,47	-92,00
-3557,58	-149,00
-3545,71	-159,00
-3533,86	39,00
-3522,02	36,00
-3510,21	-107,00
-3498,41	-152,00
-3486,63	-106,00
-3474,87	-88,00
-3463,12	-50,00
-3451,40	-105,00
-3439,69	-67,00
-3428,00	-40,00
-3416,33	-80,00
-3404,67	-67,00
-3393,03	-59,00
-3381,41	-87,00
-3369,81	-110,00
-3358,22	-52,00
-3346,66	-47,00
-3335,10	19,00
-3323,57	-78,00
-3312,06	-16,00
-3300,56	-104,00
-3289,08	-96,00
-3277,61	-250,00
-3266,16	-188,00
-3254,73	-39,00
-3243,32	-58,00
-3231,92	-83,00
-3220,55	-20,00
-3209,18	95,00
-3197,84	-26,00
-3186,51	-98,00
-3175,20	-104,00
-3163,90	-75,00
-3152,63	-149,00
-3141,36	-93,00
-3130,12	-85,00
-3118,89	49,00
-3107,68	20,00
-3096,49	16,00
-3085,31	-26,00
-3074,15	-63,00
-3063,00	44,00
-3051,87	-76,00
-3040,76	-31,00
-3029,67	-76,00
-3018,59	-19,00
-3007,52	-102,00
-2996,48	-62,00
-2985,44	-44,00
-2974,43	39,00
-2963,43	-51,00
-2952,45	-37,00
-2941,48	-29,00
-2930,53	24,00
-2919,60	-80,00
-2908,68	-81,00
-2897,78	-89,00
-2886,89	-14,00
-2876,02	-67,00
-2865,17	-106,00
-2854,33	-37,00
-2843,50	-81,00
-2832,70	-54,00
-2821,90	109,00
-2811,13	-51,00
-2800,37	-47,00
-2789,62	-49,00
-2778,89	3,00
-2768,18	-9,00
-2757,48	28,00
-2746,80	-14,00
-2736,13	-144,00
-2725,48	-22,00
-2714,84	-119,00
-2704,22	-140,00
-2693,61	10,00
-2683,02	-31,00
-2672,45	-30,00
-2661,89	-104,00
-2651,34	66,00
-2640,81	-58,00
-2630,30	-98,00
-2619,80	-107,00
-2609,31	-68,00
-2598,84	45,00
-2588,39	-4,00
-2577,95	-3,00
-2567,52	-131,00
-2557,11	-82,00
-2546,71	-100,00
-2536,33	-18,00
-2525,97	-49,00
-2515,62	-102,00
-2505,28	-46,00
-2494,96	-139,00
-2484,65	-71,00
-2474,36	-46,00
-2464,08	-5,00
-2453,82	3,00
-2443,57	-91,00
-2433,33	40,00
-2423,11	-85,00
-2412,91	-39,00
-2402,72	-84,00
-2392,54	-145,00
-2382,38	-47,00
-2372,23	-97,00
-2362,09	3967,00
-2351,97	-59,00
-2341,87	52,00
-2331,78	-120,00
-2321,70	-81,00
-2311,64	-105,00
-2301,59	40,00
-2291,55	-4,00
-2281,53	-79,00
-2271,53	-45,00
-2261,53	-117,00
-2251,55	40,00
-2241,59	-94,00
-2231,64	33,00
-2221,70	-22,00
-2211,78	-16,00
-2201,87	-58,00
-2191,97	-40,00
-2182,09	-31,00
-2172,22	11,00
-2162,37	-124,00
-2152,53	-47,00
-2142,70	-121,00
-2132,89	-53,00
-2123,09	-78,00
-2113,30	12,00
-2103,53	-78,00
-2093,77	-159,00
-2084,02	-65,00
-2074,29	-66,00
-2064,57	-26,00
-2054,86	-42,00
-2045,17	-45,00
-2035,49	-24,00
-2025,82	-168,00
-2016,17	-50,00
-2006,53	-117,00
-1996,91	-66,00
-1987,29	-96,00
-1977,69	-33,00
-1968,11	5,00
-1958,53	-5,00
-1948,97	27,00
-1939,42	-33,00
-1929,89	-76,00
-1920,37	41,00
-1910,86	-86,00
-1901,36	-77,00
-1891,88	-110,00
-1882,41	-49,00
-1872,95	-111,00
-1863,51	40,00
-1854,08	-161,00
-1844,66	-56,00
-1835,26	-80,00
-1825,86	-84,00
-1816,48	-55,00
-1807,11	-76,00
-1797,76	-148,00
-1788,42	-57,00
-1779,09	22,00
-1769,77	40,00
-1760,47	-26,00
-1751,17	-23,00
-1741,89	-7,00
-1732,63	-52,00
-1723,37	17,00
-1714,13	-65,00
-1704,90	-80,00
-1695,68	-35,00
-1686,48	-31,00
-1677,29	12,00
-1668,11	-41,00
-1658,94	47,00
-1649,78	-63,00
-1640,64	-125,00
-1631,51	48,00
-1622,39	-167,00
-1613,28	-15,00
-1604,19	-17,00
-1595,10	34,00
-1586,03	-66,00
-1576,97	25,00
-1567,93	-96,00
-1558,89	-68,00
-1549,87	-106,00
-1540,86	-97,00
-1531,86	-25,00
-1522,87	-167,00
-1513,90	-74,00
-1504,93	-105,00
-1495,98	49,00
-1487,04	-143,00
-1478,12	51,00
-1469,20	-153,00
-1460,30	-5,00
-1451,40	-68,00
-1442,52	1,00
-1433,65	-42,00
-1424,80	-104,00
-1415,95	12,00
-1407,12	29,00
-1398,30	-27,00
-1389,48	-108,00
-1380,69	-102,00
-1371,90	-83,00
-1363,12	-192,00
-1354,36	-8,00
-1345,60	-97,00
-1336,86	-62,00
-1328,13	-29,00
-1319,41	-20,00
-1310,70	-89,00
-1302,01	-16,00
-1293,32	-38,00
-1284,65	-56,00
-1275,99	-42,00
-1267,33	-103,00
-1258,69	19,00
-1250,06	9,00
-1241,45	36,00
-1232,84	-55,00
-1224,25	-81,00
-1215,66	-119,00
-1207,09	-68,00
-1198,53	33,00
-1189,97	-98,00
-1181,43	-47,00
-1172,91	-118,00
-1164,39	-70,00
-1155,88	-1,00
-1147,38	30,00
-1138,90	18,00
-1130,43	-99,00
-1121,96	-85,00
-1113,51	-42,00
-1105,07	26,00
-1096,64	-114,00
-1088,22	-9,00
-1079,81	-55,00
-1071,41	-63,00
-1063,02	4,00
-1054,65	-12,00
-1046,28	-5,00
-1037,92	-74,00
-1029,58	-63,00
-1021,24	-100,00
-1012,92	-61,00
-1004,61	-59,00
-996,30	-22,00
-988,01	8,00
-979,73	-64,00
-971,46	-28,00
-963,20	-134,00
-954,95	-69,00
-946,71	9,00
-938,48	-80,00
-930,26	-90,00
-922,06	5,00
-913,86	-121,00
-905,67	-20,00
-897,49	-22,00
-889,33	-48,00
-881,17	-157,00
-873,02	54,00
-864,89	-228,00
-856,76	-46,00
-848,65	30,00
-840,54	73,00
-832,45	11,00
-824,36	-63,00
-816,29	-23,00
-808,22	-180,00
-800,17	9,00
-792,12	11,00
-784,09	-75,00
-776,06	-32,00
-768,05	-29,00
-760,04	64,00
-752,05	-104,00
-744,07	-57,00
-736,09	-105,00
-728,13	19,00
-720,17	-85,00
-712,23	-122,00
-704,29	58,00
-696,37	-92,00
-688,45	-11,00
-680,55	-39,00
-672,65	23,00
-664,77	-43,00
-656,89	-151,00
-649,03	-106,00
-641,17	-98,00
-633,32	-4,00
-625,49	-42,00
-617,66	-92,00
-609,84	-66,00
-602,03	11,00
-594,23	-80,00
-586,45	-152,00
-578,67	-98,00
-570,90	67,00
-563,14	2,00
-555,39	-61,00
-547,65	-138,00
-539,91	-191,00
-532,19	67,00
-524,48	-74,00
-516,78	-204,00
-509,08	-76,00
-501,40	-67,00
-493,72	-11,00
-486,06	15,00
-478,40	1,00
-470,76	62,00
-463,12	-52,00
-455,49	2,00
-447,87	-26,00
-440,26	-97,00
-432,66	-54,00
-425,07	-61,00
-417,49	-87,00
-409,92	4,00
-402,35	14,00
-394,80	26,00
-387,25	-28,00
-379,72	16,00
-372,19	-31,00
-364,67	74,00
-357,17	20,00
-349,67	-20,00
-342,18	9,00
-334,69	36,00
-327,22	62,00
-319,76	-69,00
-312,30	58,00
-304,86	-17,00
-297,42	-64,00
-290,00	-8,00
-282,58	71,00
-275,17	24,00
-267,77	-36,00
-260,37	128,00
-252,99	-13,00
-245,62	17,00
-238,25	-1,00
-230,90	65,00
-223,55	78,00
-216,21	86,00
-208,88	175,00
-201,56	125,00
-194,25	95,00
-186,94	250,00
-179,65	265,00
-172,36	198,00
-165,08	300,00
-157,81	319,00
-150,55	279,00
-143,30	428,00
-136,06	346,00
-128,82	497,00
-121,60	500,00
-114,38	569,00
-107,17	580,00
-99,97	728,00
-92,78	935,00
-85,60	1043,00
-78,42	1296,00
-71,25	1398,00
-64,10	1659,00
-56,95	1847,00
-49,81	2395,00
-42,67	2898,00
-35,55	3723,00
-28,43	4719,00
-21,33	7902,00
-14,23	25093,00
-7,14	56043,00
-0,05	55763,00
7,02	55513,00
14,09	55717,00
21,14	26278,00
28,19	10611,00
35,23	6552,00
42,27	4647,00
49,29	3904,00
56,31	3305,00
63,32	2769,00
70,32	2183,00
77,31	1932,00
84,29	1641,00
91,27	1444,00
98,23	1211,00
105,19	1174,00
112,14	1236,00
119,09	1729,00
126,02	2870,00
132,95	3434,00
139,87	3609,00
146,78	3425,00
153,68	3573,00
160,58	3387,00
167,46	3400,00
174,34	3274,00
181,21	3370,00
188,08	3392,00
194,93	3263,00
201,78	3432,00
208,62	3297,00
215,45	3350,00
222,27	3217,00
229,09	3191,00
235,90	3203,00
242,70	3221,00
249,49	3109,00
256,27	3108,00
263,05	3074,00
269,82	3222,00
276,58	3050,00
283,33	3040,00
290,08	3132,00
296,82	2928,00
303,55	2957,00
310,27	2976,00
316,98	2841,00
323,69	2751,00
330,39	2899,00
337,08	2776,00
343,76	2850,00
350,44	2797,00
357,11	2778,00
363,77	2732,00
370,42	2711,00
377,07	2628,00
383,71	2861,00
390,34	2794,00
396,96	2774,00
403,58	2814,00
410,19	2802,00
416,79	2759,00
423,38	2869,00
429,97	2684,00
436,55	2583,00
443,12	2510,00
449,68	2461,00
456,24	2618,00
462,79	2513,00
469,33	2466,00
475,86	2306,00
482,39	2573,00
488,91	2507,00
495,42	2365,00
501,93	2363,00
508,42	2371,00
514,91	2417,00
521,40	2266,00
527,87	2299,00
534,34	2297,00
540,80	2192,00
547,25	2242,00
553,70	2232,00
560,14	2217,00
566,57	2290,00
573,00	2074,00
579,41	2179,00
585,83	2240,00
592,23	2201,00
598,62	2143,00
605,01	2124,00
611,40	2132,00
617,77	2109,00
624,14	2092,00
630,50	2153,00
636,85	2153,00
643,20	2022,00
649,54	2077,00
655,87	2038,00
662,20	1964,00
668,52	1983,00
674,83	2057,00
681,13	2006,00
687,43	1924,00
693,72	1872,00
700,00	1914,00
706,28	1901,00
712,55	1913,00
718,81	1796,00
725,07	1831,00
731,32	2010,00
737,56	1881,00
743,79	1937,00
750,02	1836,00
756,24	1913,00
762,46	1889,00
768,67	1825,00
774,87	1772,00
781,06	1928,00
787,25	1725,00
793,43	1846,00
799,60	1816,00
805,77	1810,00
811,93	1658,00
818,08	1770,00
824,23	1825,00
830,37	1715,00
836,50	1702,00
842,63	1751,00
848,75	1739,00
854,87	1621,00
860,97	1722,00
867,07	1765,00
873,17	1644,00
879,25	1623,00
885,33	1808,00
891,41	1781,00
897,47	1660,00
903,53	1554,00
909,59	1509,00
915,63	1623,00
921,67	1486,00
927,71	1617,00
933,74	1566,00
939,76	1574,00
945,77	1522,00
951,78	1448,00
957,78	1505,00
963,78	1594,00
969,77	1531,00
975,75	1518,00
981,72	1636,00
987,69	1456,00
993,66	1510,00
999,61	1481,00
1005,56	1468,00
1011,51	1570,00
1017,44	1524,00
1023,37	1498,00
1029,30	1486,00
1035,22	1461,00
1041,13	1480,00
1047,03	1422,00
1052,93	1627,00
1058,83	1793,00
1064,71	1860,00
1070,59	1709,00
1076,47	1504,00
1082,33	1443,00
1088,20	1464,00
1094,05	1371,00
1099,90	1525,00
1105,74	1401,00
1111,58	1421,00
1117,41	1554,00
1123,23	1576,00
1129,05	1866,00
1134,86	1765,00
1140,67	1512,00
1146,47	1441,00
1152,26	1405,00
1158,05	1323,00
1163,83	1298,00
1169,60	1431,00
1175,37	1218,00
1181,13	1283,00
1186,89	1362,00
1192,64	1302,00
1198,38	1391,00
1204,12	1383,00
1209,85	1316,00
1215,58	1114,00
1221,30	1372,00
1227,02	1354,00
1232,72	1382,00
1238,43	1390,00
1244,12	1310,00
1249,81	1294,00
1255,50	1391,00
1261,17	1301,00
1266,85	1429,00
1272,51	1472,00
1278,17	1277,00
1283,83	1578,00
1289,47	1805,00
1295,12	1848,00
1300,75	1878,00
1306,38	1650,00
1312,01	1441,00
1317,63	1385,00
1323,24	1467,00
1328,85	1452,00
1334,45	1497,00
1340,04	1354,00
1345,63	1461,00
1351,22	1375,00
1356,80	1469,00
1362,37	1557,00
1367,93	1565,00
1373,49	1437,00
1379,05	1519,00
1384,60	1416,00
1390,14	1426,00
1395,68	1546,00
1401,21	1525,00
1406,74	1590,00
1412,26	1623,00
1417,77	1701,00
1423,28	1709,00
1428,78	1800,00
1434,28	1845,00
1439,77	1902,00
1445,26	1798,00
1450,74	1754,00
1456,22	1728,00
1461,68	1710,00
1467,15	1711,00
1472,61	1524,00
1478,06	1402,00
1483,51	1387,00
1488,95	1368,00
1494,38	1474,00
1499,81	1367,00
1505,24	1403,00
1510,65	1220,00
1516,07	1164,00
1521,48	1171,00
1526,88	1238,00
1532,27	1214,00
1537,67	1087,00
1543,05	1241,00
1548,43	1259,00
1553,81	1273,00
1559,18	1021,00
1564,54	1157,00
1569,90	1188,00
1575,25	1130,00
1580,60	1127,00
1585,94	1255,00
1591,28	1078,00
1596,61	1130,00
1601,93	1182,00
1607,25	1075,00
1612,57	1087,00
1617,88	1140,00
1623,18	1135,00
1628,48	1133,00
1633,77	1143,00
1639,06	1227,00
1644,34	1082,00
1649,62	1116,00
1654,89	1079,00
1660,16	1014,00
1665,42	951,00
1670,67	1051,00
1675,92	1089,00
1681,17	953,00
1686,41	1054,00
1691,64	927,00
1696,87	1114,00
1702,10	883,00
1707,32	980,00
1712,53	982,00
1717,74	902,00
1722,94	1013,00
1728,14	924,00
1733,33	943,00
1738,52	937,00
1743,70	922,00
1748,88	949,00
1754,05	911,00
1759,22	967,00
1764,38	906,00
1769,53	869,00
1774,69	726,00
1779,83	847,00
1784,97	960,00
1790,11	896,00
1795,24	786,00
1800,36	796,00
1805,48	843,00
1810,60	841,00
1815,71	729,00
1820,82	737,00
1825,92	604,00
1831,01	727,00
1836,10	892,00
1841,19	853,00
1846,26	762,00
1851,34	769,00
1856,41	820,00
1861,47	750,00
1866,53	704,00
1871,59	780,00
1876,64	644,00
1881,68	708,00
1886,72	755,00
1891,76	816,00
1896,79	674,00
1901,81	698,00
1906,83	695,00
1911,85	599,00
1916,86	709,00
1921,86	782,00
1926,86	701,00
1931,86	662,00
1936,85	568,00
1941,83	638,00
1946,81	562,00
1951,79	689,00
1956,76	670,00
1961,72	536,00
1966,68	621,00
1971,64	586,00
1976,59	586,00
1981,54	626,00
1986,48	554,00
1991,42	621,00
1996,35	541,00
2001,27	559,00
2006,20	602,00
2011,11	496,00
2016,03	602,00
2020,93	597,00
2025,84	482,00
2030,73	594,00
2035,63	431,00
2040,52	575,00
2045,40	521,00
2050,28	413,00
2055,15	546,00
2060,02	536,00
2064,89	471,00
2069,75	407,00
2074,60	500,00
2079,46	459,00
2084,30	508,00
2089,14	423,00
2093,98	392,00
2098,81	462,00
2103,64	481,00
2108,46	453,00
2113,28	587,00
2118,09	434,00
2122,90	457,00
2127,70	511,00
2132,50	570,00
2137,30	398,00
2142,09	465,00
2146,87	411,00
2151,66	441,00
2156,43	458,00
2161,20	550,00
2165,97	341,00
2170,73	367,00
2175,49	310,00
2180,24	510,00
2184,99	462,00
2189,74	363,00
2194,48	367,00
2199,21	369,00
2203,94	351,00
2208,67	381,00
2213,39	362,00
2218,11	301,00
2222,82	372,00
2227,53	409,00
2232,23	417,00
2236,93	425,00
2241,63	322,00
2246,32	441,00
2251,00	297,00
2255,68	338,00
2260,36	449,00
2265,03	424,00
2269,70	328,00
2274,36	368,00
2279,02	405,00
2283,68	282,00
2288,33	392,00
2292,97	367,00
2297,61	268,00
2302,25	231,00
2306,88	385,00
2311,51	332,00
2316,14	266,00
2320,75	273,00
2325,37	304,00
2329,98	332,00
2334,59	374,00
2339,19	340,00
2343,79	196,00
2348,38	330,00
2352,97	291,00
2357,55	240,00
2362,13	361,00
2366,71	274,00
2371,28	417,00
2375,85	235,00
2380,41	362,00
2384,97	275,00
2389,52	280,00
2394,07	217,00
2398,62	211,00
2403,16	302,00
2407,70	289,00
2412,23	197,00
2416,76	338,00
2421,29	269,00
2425,81	90,00
2430,32	278,00
2434,84	309,00
2439,34	237,00
2443,85	396,00
2448,35	383,00
2452,84	220,00
2457,33	189,00
2461,82	329,00
2466,30	245,00
2470,78	205,00
2475,25	155,00
2479,72	204,00
2484,19	158,00
2488,65	153,00
2493,11	225,00
2497,56	230,00
2502,01	270,00
2506,46	193,00
2510,90	159,00
2515,34	200,00
2519,77	209,00
2524,20	169,00
2528,62	217,00
2533,04	187,00
2537,46	321,00
2541,87	203,00
2546,28	199,00
2550,68	214,00
2555,08	269,00
2559,48	303,00
2563,87	252,00
2568,26	215,00
2572,64	162,00
2577,02	304,00
2581,40	324,00
2585,77	135,00
2590,14	225,00
2594,50	164,00
2598,86	170,00
2603,22	106,00
2607,57	114,00
2611,92	122,00
2616,26	104,00
2620,60	175,00
2624,94	182,00
2629,27	111,00
2633,60	89,00
2637,92	305,00
2642,24	37,00
2646,56	143,00
2650,87	136,00
2655,18	207,00
2659,48	159,00
2663,78	66,00
2668,08	164,00
2672,37	190,00
2676,66	261,00
2680,95	210,00
2685,23	209,00
2689,50	73,00
2693,78	178,00
2698,05	258,00
2702,31	177,00
2706,57	129,00
2710,83	121,00
2715,08	304,00
2719,33	136,00
2723,58	217,00
2727,82	197,00
2732,06	189,00
2736,29	182,00
2740,53	114,00
2744,75	190,00
2748,97	161,00
2753,19	217,00
2757,41	238,00
2761,62	63,00
2765,83	311,00
2770,03	96,00
2774,23	75,00
2778,43	86,00
2782,62	139,00
2786,81	82,00
2791,00	216,00
2795,18	316,00
2799,35	122,00
2803,53	263,00
2807,70	213,00
2811,86	167,00
2816,03	108,00
2820,19	117,00
2824,34	259,00
2828,49	246,00
2832,64	192,00
2836,78	306,00
2840,92	392,00
2845,06	467,00
2849,19	654,00
2853,32	580,00
2857,45	538,00
2861,57	589,00
2865,69	510,00
2869,80	512,00
2873,91	469,00
2878,02	583,00
2882,12	586,00
2886,22	655,00
2890,32	629,00
2894,41	539,00
2898,50	425,00
2902,58	390,00
2906,67	416,00
2910,74	468,00
2914,82	361,00
2918,89	280,00
2922,96	358,00
2927,02	389,00
2931,08	271,00
2935,13	337,00
2939,19	207,00
2943,24	307,00
2947,28	324,00
2951,32	120,00
2955,36	154,00
2959,40	158,00
2963,43	243,00
2967,46	70,00
2971,48	159,00
2975,50	196,00
2979,52	67,00
2983,53	153,00
2987,54	24,00
2991,55	35,00
2995,55	17,00
2999,55	102,00
3003,54	101,00
3007,54	-42,00
3011,53	-7,00
3015,51	4,00
3019,49	178,00
3023,47	-27,00
3027,45	59,00
3031,42	71,00
3035,39	-45,00
3039,35	88,00
3043,31	-9,00
3047,27	166,00
3051,22	15,00
3055,17	112,00
3059,12	107,00
3063,06	126,00
3067,00	98,00
3070,94	45,00
3074,87	18,00
3078,80	-25,00
3082,73	87,00
3086,65	92,00
3090,57	71,00
3094,49	28,00
3098,40	48,00
3102,31	-18,00
3106,22	-20,00
3110,12	-62,00
3114,02	-43,00
3117,92	-41,00
3121,81	133,00
3125,70	37,00
3129,58	13,00
3133,47	4,00
3137,34	-23,00
3141,22	-17,00
3145,09	19,00
3148,96	-33,00
3152,83	117,00
3156,69	28,00
3160,55	82,00
3164,40	-12,00
3168,26	115,00
3172,10	103,00
3175,95	61,00
3179,79	79,00
3183,63	131,00
3187,47	41,00
3191,30	-108,00
3195,13	-26,00
3198,95	22,00
3202,78	-61,00
3206,60	7,00
3210,41	-11,00
3214,23	71,00
3218,03	4,00
3221,84	44,00
3225,64	43,00
3229,44	-12,00
3233,24	21,00
3237,03	23,00
3240,82	62,00
3244,61	92,00
3248,39	80,00
3252,17	20,00
3255,95	-26,00
3259,72	12,00
3263,49	-7,00
3267,26	41,00
3271,03	20,00
3274,79	44,00
3278,54	103,00
3282,30	-28,00
3286,05	94,00
3289,80	-9,00
3293,54	61,00
3297,29	6,00
3301,02	53,00
3304,76	-53,00
3308,49	-25,00
3312,22	89,00
3315,95	-38,00
3319,67	-19,00
3323,39	68,00
3327,10	6,00
3330,82	69,00
3334,53	-8,00
3338,24	108,00
3341,94	27,00
3345,64	-24,00
3349,34	119,00
3353,03	-80,00
3356,72	45,00
3360,41	-43,00
3364,10	-4,00
3367,78	18,00
3371,46	-18,00
3375,13	-30,00
3378,81	118,00
3382,48	47,00
3386,14	-94,00
3389,81	65,00
3393,47	-77,00
3397,12	-25,00
3400,78	1,00
3404,43	72,00
3408,08	5,00
3411,72	6,00
3415,36	21,00
3419,00	27,00
3422,64	43,00
3426,27	70,00
3429,90	50,00
3433,53	-40,00
3437,15	-54,00
3440,77	-33,00
3444,39	-28,00
3448,00	48,00
3451,62	34,00
3455,22	38,00
3458,83	-64,00
3462,43	-89,00
3466,03	-86,00
3469,63	-36,00
3473,22	-4,00
3476,81	22,00
3480,40	-64,00
3483,99	4,00
3487,57	71,00
3491,15	-87,00
3494,72	-51,00
3498,29	1,00
3501,86	44,00
3505,43	35,00
3508,99	-10,00
3512,56	-10,00
3516,11	53,00
3519,67	34,00
3523,22	0,00
3526,77	-49,00
3530,32	-65,00
3533,86	-33,00
3537,40	22,00
3540,94	-39,00
3544,47	-22,00
3548,00	-40,00
3551,53	-96,00
3555,06	-136,00
3558,58	-70,00
3562,10	-73,00
3565,62	-18,00
3569,13	-141,00
3572,64	-50,00
3576,15	-39,00
3579,66	-120,00
3583,16	8,00
3586,66	-36,00
3590,16	-94,00
3593,65	-91,00
3597,14	-12,00
3600,63	-100,00
3604,11	0,00
3607,60	-113,00
3611,08	-44,00
3614,55	34,00
3618,03	-75,00
3621,50	-58,00
3624,97	-28,00
3628,43	-90,00
3631,90	21,00
3635,36	-5,00
3638,81	-50,00
3642,27	-12,00
3645,72	57,00
3649,17	-120,00
3652,61	-55,00
3656,06	-123,00
3659,50	-14,00
3662,93	-20,00
3666,37	-47,00
3669,80	-39,00
3673,23	-7,00
3676,65	35,00
3680,08	-91,00
3683,50	-62,00
3686,92	28,00
3690,33	-148,00
3693,74	-2,00
3697,15	-36,00
3700,56	-41,00
3703,96	-79,00
3707,36	-119,00
3710,76	-109,00
3714,16	-43,00
3717,55	82,00
3720,94	-42,00
3724,33	2,00
3727,71	-74,00
3731,10	-61,00
3734,48	-5,00
3737,85	-113,00
3741,23	-57,00
3744,60	65,00
3747,97	10,00
3751,33	3,00
3754,69	-83,00
3758,05	10,00
3761,41	14,00
3764,77	53,00
3768,12	-41,00
3771,47	86,00
3774,82	-19,00
3778,16	-1,00
3781,50	3,00
3784,84	6,00
3788,18	-1,00
>>>>>End Processed Spectral Data<<<<<
