SpectraSuite Data File
++++++++++++++++++++++++++++++++++++
Date: Wed Feb 11 17:09:38 ICT 2026
User: Administrator
Dark Spectrum Present: Yes
Reference Spectrum Present: No
Number of Sampled Component Spectra: 1
Spectrometers: MAYP113682
Integration Time (usec): 3000000 (MAYP113682)
Spectra Averaged: 1 (MAYP113682)
Boxcar Smoothing: 0 (MAYP113682)
Correct for Electrical Dark: No (MAYP113682)
Strobe/Lamp Enabled: No (MAYP113682)
Correct for Detector Non-linearity: No (MAYP113682)
Correct for Stray Light: No (MAYP113682)
Number of Pixels in Processed Spectrum: 2068
>>>>>Begin Processed Spectral Data<<<<<
-37534,58	14,00
-37414,56	5,00
-37295,11	1,00
-37176,24	-4,00
-37057,95	63,00
-36940,22	56,00
-36823,05	98,00
-36706,45	100,00
-36590,40	88,00
-36474,90	31,00
-36359,95	69,00
-36245,55	29,00
-36131,68	64,00
-36018,35	148,00
-35905,55	135,00
-35793,29	174,00
-35681,54	67,00
-35570,32	158,00
-35459,62	201,00
-35349,43	93,00
-35239,75	88,00
-35130,58	147,00
-35021,91	62,00
-34913,74	66,00
-34806,07	3,00
-34698,89	75,00
-34592,20	130,00
-34486,00	150,00
-34380,28	175,00
-34275,04	40,00
-34170,27	54,00
-34065,98	32,00
-33962,16	98,00
-33858,81	186,00
-33755,92	41,00
-33653,49	44,00
-33551,52	137,00
-33450,01	-20,00
-33348,94	52,00
-33248,33	74,00
-33148,16	39,00
-33048,43	36,00
-32949,14	158,00
-32850,29	75,00
-32751,87	162,00
-32653,89	55,00
-32556,33	35,00
-32459,20	144,00
-32362,49	155,00
-32266,19	21,00
-32170,32	114,00
-32074,86	60,00
-31979,82	173,00
-31885,18	165,00
-31790,95	131,00
-31697,12	136,00
-31603,69	135,00
-31510,67	60,00
-31418,04	162,00
-31325,80	141,00
-31233,95	208,00
-31142,49	91,00
-31051,42	137,00
-30960,73	132,00
-30870,43	62,00
-30780,50	64,00
-30690,95	126,00
-30601,77	132,00
-30512,97	91,00
-30424,53	76,00
-30336,46	94,00
-30248,76	123,00
-30161,42	49,00
-30074,44	29,00
-29987,81	132,00
-29901,55	54,00
-29815,63	75,00
-29730,07	187,00
-29644,86	131,00
-29560,00	143,00
-29475,48	148,00
-29391,30	30,00
-29307,47	35,00
-29223,97	169,00
-29140,81	6,00
-29057,99	121,00
-28975,50	138,00
-28893,34	-7,00
-28811,51	97,00
-28730,00	155,00
-28648,82	243,00
-28567,97	162,00
-28487,43	86,00
-28407,21	125,00
-28327,32	24,00
-28247,73	39,00
-28168,46	104,00
-28089,50	41,00
-28010,85	9,00
-27932,51	82,00
-27854,48	126,00
-27776,75	49,00
-27699,32	51,00
-27622,19	152,00
-27545,37	124,00
-27468,84	80,00
-27392,60	226,00
-27316,66	72,00
-27241,01	147,00
-27165,66	21,00
-27090,59	-25,00
-27015,81	60,00
-26941,31	97,00
-26867,10	91,00
-26793,17	134,00
-26719,52	104,00
-26646,15	92,00
-26573,06	99,00
-26500,24	46,00
-26427,70	92,00
-26355,43	128,00
-26283,43	139,00
-26211,71	71,00
-26140,25	202,00
-26069,06	162,00
-25998,13	70,00
-25927,46	-25,00
-25857,06	105,00
-25786,92	156,00
-25717,04	138,00
-25647,42	82,00
-25578,05	166,00
-25508,94	48,00
-25440,09	76,00
-25371,48	100,00
-25303,13	176,00
-25235,02	126,00
-25167,17	162,00
-25099,56	141,00
-25032,19	146,00
-24965,07	58,00
-24898,20	101,00
-24831,56	159,00
-24765,17	131,00
-24699,01	48,00
-24633,10	49,00
-24567,41	132,00
-24501,97	31,00
-24436,75	77,00
-24371,77	129,00
-24307,03	93,00
-24242,51	42,00
-24178,22	2,00
-24114,16	91,00
-24050,32	118,00
-23986,71	129,00
-23923,32	177,00
-23860,16	91,00
-23797,22	122,00
-23734,50	54,00
-23672,00	95,00
-23609,71	113,00
-23547,65	34,00
-23485,80	244,00
-23424,16	125,00
-23362,74	114,00
-23301,53	-8,00
-23240,54	100,00
-23179,75	117,00
-23119,17	147,00
-23058,80	109,00
-22998,64	248,00
-22938,68	103,00
-22878,93	65,00
-22819,39	47,00
-22760,04	78,00
-22700,90	108,00
-22641,96	134,00
-22583,22	96,00
-22524,68	51,00
-22466,33	171,00
-22408,19	128,00
-22350,23	37,00
-22292,48	154,00
-22234,92	54,00
-22177,55	-28,00
-22120,37	58,00
-22063,38	199,00
-22006,58	78,00
-21949,98	62,00
-21893,56	80,00
-21837,33	21,00
-21781,28	88,00
-21725,42	108,00
-21669,74	115,00
-21614,25	73,00
-21558,94	102,00
-21503,81	46,00
-21448,86	66,00
-21394,10	174,00
-21339,51	82,00
-21285,10	51,00
-21230,86	7,00
-21176,81	138,00
-21122,93	86,00
-21069,22	105,00
-21015,69	150,00
-20962,33	24,00
-20909,14	49,00
-20856,13	213,00
-20803,28	184,00
-20750,61	141,00
-20698,10	124,00
-20645,76	101,00
-20593,59	195,00
-20541,59	134,00
-20489,75	115,00
-20438,07	123,00
-20386,56	141,00
-20335,22	102,00
-20284,03	102,00
-20233,01	125,00
-20182,15	95,00
-20131,45	43,00
-20080,91	11,00
-20030,52	123,00
-19980,30	60,00
-19930,23	64,00
-19880,32	164,00
-19830,56	116,00
-19780,96	154,00
-19731,52	80,00
-19682,23	249,00
-19633,09	-115,00
-19584,10	53,00
-19535,26	46,00
-19486,58	180,00
-19438,04	210,00
-19389,66	104,00
-19341,42	116,00
-19293,33	-39,00
-19245,39	17,00
-19197,60	48,00
-19149,95	44,00
-19102,45	139,00
-19055,09	103,00
-19007,87	74,00
-18960,80	163,00
-18913,87	128,00
-18867,09	61,00
-18820,44	52,00
-18773,94	199,00
-18727,57	91,00
-18681,35	109,00
-18635,26	151,00
-18589,31	60,00
-18543,50	138,00
-18497,83	140,00
-18452,29	154,00
-18406,89	48,00
-18361,63	66,00
-18316,50	40,00
-18271,50	-4,00
-18226,63	72,00
-18181,90	12,00
-18137,30	147,00
-18092,84	-21,00
-18048,50	122,00
-18004,29	64,00
-17960,22	55,00
-17916,27	55,00
-17872,45	183,00
-17828,76	143,00
-17785,20	194,00
-17741,77	73,00
-17698,46	97,00
-17655,28	20,00
-17612,22	121,00
-17569,29	89,00
-17526,48	132,00
-17483,79	111,00
-17441,23	44,00
-17398,79	198,00
-17356,48	100,00
-17314,28	139,00
-17272,21	123,00
-17230,26	-55,00
-17188,42	126,00
-17146,71	45,00
-17105,12	176,00
-17063,64	67,00
-17022,28	88,00
-16981,04	190,00
-16939,92	136,00
-16898,91	85,00
-16858,02	88,00
-16817,25	-11,00
-16776,59	81,00
-16736,04	91,00
-16695,61	70,00
-16655,29	49,00
-16615,09	56,00
-16574,99	145,00
-16535,01	56,00
-16495,15	65,00
-16455,39	148,00
-16415,74	111,00
-16376,21	31,00
-16336,78	73,00
-16297,46	42,00
-16258,26	78,00
-16219,16	233,00
-16180,17	119,00
-16141,28	62,00
-16102,51	93,00
-16063,84	245,00
-16025,27	-16,00
-15986,82	113,00
-15948,46	147,00
-15910,22	30,00
-15872,07	109,00
-15834,04	47,00
-15796,10	27,00
-15758,27	158,00
-15720,54	97,00
-15682,91	120,00
-15645,39	129,00
-15607,97	61,00
-15570,64	37,00
-15533,42	73,00
-15496,30	-36,00
-15459,28	170,00
-15422,36	150,00
-15385,54	104,00
-15348,82	184,00
-15312,19	132,00
-15275,66	116,00
-15239,23	22,00
-15202,90	146,00
-15166,67	21,00
-15130,53	75,00
-15094,48	130,00
-15058,54	37,00
-15022,68	201,00
-14986,93	215,00
-14951,26	124,00
-14915,69	79,00
-14880,22	117,00
-14844,84	57,00
-14809,55	175,00
-14774,35	107,00
-14739,25	32,00
-14704,24	53,00
-14669,32	110,00
-14634,49	140,00
-14599,75	132,00
-14565,10	73,00
-14530,55	41,00
-14496,08	64,00
-14461,70	66,00
-14427,41	190,00
-14393,21	3,00
-14359,10	18,00
-14325,07	76,00
-14291,14	97,00
-14257,29	129,00
-14223,52	119,00
-14189,85	26,00
-14156,26	122,00
-14122,76	55,00
-14089,34	170,00
-14056,01	55,00
-14022,76	63,00
-13989,60	81,00
-13956,52	96,00
-13923,53	-24,00
-13890,62	65,00
-13857,79	65,00
-13825,05	110,00
-13792,39	70,00
-13759,81	172,00
-13727,31	17,00
-13694,90	11,00
-13662,57	201,00
-13630,31	36,00
-13598,14	132,00
-13566,05	5,00
-13534,05	18,00
-13502,12	87,00
-13470,27	166,00
-13438,50	98,00
-13406,80	140,00
-13375,19	120,00
-13343,66	122,00
-13312,20	215,00
-13280,83	-3,00
-13249,53	228,00
-13218,30	30,00
-13187,16	125,00
-13156,09	136,00
-13125,10	149,00
-13094,18	148,00
-13063,34	78,00
-13032,58	96,00
-13001,89	78,00
-12971,28	131,00
-12940,74	83,00
-12910,27	54,00
-12879,88	97,00
-12849,57	147,00
-12819,33	30,00
-12789,16	228,00
-12759,06	54,00
-12729,04	145,00
-12699,09	158,00
-12669,21	107,00
-12639,41	127,00
-12609,68	59,00
-12580,02	60,00
-12550,43	-93,00
-12520,91	43,00
-12491,46	119,00
-12462,08	129,00
-12432,77	54,00
-12403,54	122,00
-12374,37	100,00
-12345,27	121,00
-12316,24	122,00
-12287,29	187,00
-12258,40	110,00
-12229,57	128,00
-12200,82	109,00
-12172,14	44,00
-12143,52	108,00
-12114,97	126,00
-12086,49	180,00
-12058,07	121,00
-12029,73	203,00
-12001,44	93,00
-11973,23	142,00
-11945,08	44,00
-11917,00	153,00
-11888,98	143,00
-11861,03	105,00
-11833,15	63,00
-11805,32	120,00
-11777,57	77,00
-11749,88	169,00
-11722,25	107,00
-11694,69	78,00
-11667,19	-65,00
-11639,75	68,00
-11612,38	96,00
-11585,07	44,00
-11557,83	145,00
-11530,65	31,00
-11503,53	110,00
-11476,47	116,00
-11449,48	112,00
-11422,54	106,00
-11395,67	94,00
-11368,86	-10,00
-11342,11	43,00
-11315,43	42,00
-11288,80	29,00
-11262,23	95,00
-11235,73	83,00
-11209,28	116,00
-11182,90	115,00
-11156,57	156,00
-11130,31	125,00
-11104,10	98,00
-11077,96	137,00
-11051,87	162,00
-11025,84	127,00
-10999,87	96,00
-10973,96	100,00
-10948,11	136,00
-10922,31	156,00
-10896,58	155,00
-10870,90	150,00
-10845,28	226,00
-10819,71	106,00
-10794,20	102,00
-10768,75	198,00
-10743,36	-29,00
-10718,02	101,00
-10692,74	153,00
-10667,52	64,00
-10642,35	117,00
-10617,24	31,00
-10592,18	152,00
-10567,18	37,00
-10542,23	73,00
-10517,34	195,00
-10492,51	92,00
-10467,72	118,00
-10443,00	127,00
-10418,32	285,00
-10393,70	153,00
-10369,14	90,00
-10344,63	145,00
-10320,17	166,00
-10295,77	96,00
-10271,42	51,00
-10247,12	172,00
-10222,88	141,00
-10198,68	257,00
-10174,54	150,00
-10150,46	138,00
-10126,42	85,00
-10102,44	173,00
-10078,51	123,00
-10054,63	175,00
-10030,80	227,00
-10007,03	175,00
-9983,30	157,00
-9959,63	399,00
-9936,01	173,00
-9912,44	182,00
-9888,92	312,00
-9865,44	224,00
-9842,02	254,00
-9818,65	338,00
-9795,33	288,00
-9772,06	333,00
-9748,84	141,00
-9725,67	217,00
-9702,55	313,00
-9679,47	431,00
-9656,45	293,00
-9633,47	315,00
-9610,55	330,00
-9587,67	422,00
-9564,84	435,00
-9542,06	580,00
-9519,32	478,00
-9496,64	500,00
-9474,00	693,00
-9451,41	598,00
-9428,87	547,00
-9406,37	669,00
-9383,92	524,00
-9361,52	486,00
-9339,17	583,00
-9316,86	703,00
-9294,60	823,00
-9272,38	807,00
-9250,21	950,00
-9228,09	1043,00
-9206,01	1065,00
-9183,98	913,00
-9162,00	857,00
-9140,06	752,00
-9118,16	718,00
-9096,31	803,00
-9074,51	886,00
-9052,75	1110,00
-9031,04	956,00
-9009,37	798,00
-8987,74	663,00
-8966,16	529,00
-8944,63	591,00
-8923,14	505,00
-8901,69	597,00
-8880,29	553,00
-8858,93	749,00
-8837,61	784,00
-8816,34	864,00
-8795,11	865,00
-8773,92	762,00
-8752,78	557,00
-8731,68	752,00
-8710,62	728,00
-8689,61	766,00
-8668,63	731,00
-8647,70	906,00
-8626,82	913,00
-8605,97	768,00
-8585,17	805,00
-8564,41	624,00
-8543,69	660,00
-8523,01	572,00
-8502,37	582,00
-8481,78	644,00
-8461,23	824,00
-8440,71	671,00
-8420,24	814,00
-8399,81	803,00
-8379,42	873,00
-8359,08	718,00
-8338,77	767,00
-8318,50	652,00
-8298,27	650,00
-8278,09	599,00
-8257,94	653,00
-8237,83	787,00
-8217,76	809,00
-8197,74	900,00
-8177,75	831,00
-8157,80	827,00
-8137,89	709,00
-8118,02	617,00
-8098,19	727,00
-8078,40	700,00
-8058,65	647,00
-8038,93	721,00
-8019,26	622,00
-7999,62	661,00
-7980,02	608,00
-7960,46	512,00
-7940,94	551,00
-7921,46	510,00
-7902,01	562,00
-7882,60	529,00
-7863,23	518,00
-7843,90	611,00
-7824,61	537,00
-7805,35	704,00
-7786,13	613,00
-7766,95	581,00
-7747,80	615,00
-7728,69	518,00
-7709,62	576,00
-7690,59	597,00
-7671,59	710,00
-7652,63	697,00
-7633,70	654,00
-7614,81	706,00
-7595,96	562,00
-7577,15	486,00
-7558,37	591,00
-7539,62	478,00
-7520,91	585,00
-7502,24	660,00
-7483,60	713,00
-7465,00	607,00
-7446,44	528,00
-7427,91	492,00
-7409,41	300,00
-7390,95	400,00
-7372,53	443,00
-7354,14	273,00
-7335,78	365,00
-7317,46	384,00
-7299,18	463,00
-7280,92	456,00
-7262,71	580,00
-7244,52	618,00
-7226,38	493,00
-7208,26	531,00
-7190,18	544,00
-7172,14	436,00
-7154,12	529,00
-7136,15	532,00
-7118,20	567,00
-7100,29	600,00
-7082,41	644,00
-7064,57	535,00
-7046,76	460,00
-7028,98	419,00
-7011,24	296,00
-6993,53	414,00
-6975,85	378,00
-6958,20	275,00
-6940,59	192,00
-6923,01	352,00
-6905,46	434,00
-6887,94	354,00
-6870,46	2959,00
-6853,01	642,00
-6835,59	503,00
-6818,21	469,00
-6800,85	500,00
-6783,53	200,00
-6766,24	232,00
-6748,98	126,00
-6731,76	293,00
-6714,56	127,00
-6697,40	214,00
-6680,26	194,00
-6663,16	240,00
-6646,09	402,00
-6629,05	358,00
-6612,05	513,00
-6595,07	470,00
-6578,13	370,00
-6561,21	323,00
-6544,33	293,00
-6527,47	200,00
-6510,65	176,00
-6493,86	61,00
-6477,10	106,00
-6460,36	321,00
-6443,66	213,00
-6426,99	143,00
-6410,35	220,00
-6393,74	203,00
-6377,16	269,00
-6360,61	140,00
-6344,09	358,00
-6327,59	290,00
-6311,13	346,00
-6294,70	311,00
-6278,29	326,00
-6261,92	431,00
-6245,58	277,00
-6229,26	358,00
-6212,97	279,00
-6196,72	462,00
-6180,49	213,00
-6164,29	106,00
-6148,12	176,00
-6131,98	67,00
-6115,86	183,00
-6099,78	78,00
-6083,72	100,00
-6067,69	-6,00
-6051,69	120,00
-6035,72	118,00
-6019,78	218,00
-6003,87	210,00
-5987,98	144,00
-5972,12	284,00
-5956,29	308,00
-5940,49	277,00
-5924,71	302,00
-5908,96	41,00
-5893,24	61,00
-5877,55	251,00
-5861,89	124,00
-5846,25	183,00
-5830,64	127,00
-5815,05	28,00
-5799,50	218,00
-5783,97	181,00
-5768,47	232,00
-5752,99	267,00
-5737,55	277,00
-5722,12	288,00
-5706,73	355,00
-5691,36	170,00
-5676,02	97,00
-5660,71	185,00
-5645,42	157,00
-5630,16	138,00
-5614,92	160,00
-5599,71	278,00
-5584,53	220,00
-5569,37	224,00
-5554,24	199,00
-5539,14	224,00
-5524,06	179,00
-5509,01	138,00
-5493,98	249,00
-5478,98	253,00
-5464,00	154,00
-5449,05	193,00
-5434,13	162,00
-5419,23	184,00
-5404,36	181,00
-5389,51	188,00
-5374,69	244,00
-5359,89	443,00
-5345,12	263,00
-5330,37	290,00
-5315,65	349,00
-5300,95	235,00
-5286,28	249,00
-5271,63	147,00
-5257,01	189,00
-5242,41	146,00
-5227,84	89,00
-5213,29	155,00
-5198,76	120,00
-5184,26	83,00
-5169,79	179,00
-5155,33	87,00
-5140,91	102,00
-5126,51	150,00
-5112,13	233,00
-5097,77	67,00
-5083,44	108,00
-5069,13	89,00
-5054,85	240,00
-5040,59	250,00
-5026,36	192,00
-5012,15	204,00
-4997,96	208,00
-4983,80	193,00
-4969,66	136,00
-4955,54	106,00
-4941,44	211,00
-4927,37	317,00
-4913,33	346,00
-4899,30	372,00
-4885,30	393,00
-4871,33	151,00
-4857,37	210,00
-4843,44	214,00
-4829,53	112,00
-4815,65	247,00
-4801,79	149,00
-4787,95	138,00
-4774,13	98,00
-4760,34	191,00
-4746,56	0,00
-4732,82	206,00
-4719,09	167,00
-4705,38	277,00
-4691,70	378,00
-4678,04	347,00
-4664,41	153,00
-4650,79	175,00
-4637,20	261,00
-4623,63	123,00
-4610,08	157,00
-4596,56	193,00
-4583,05	162,00
-4569,57	192,00
-4556,11	62,00
-4542,67	162,00
-4529,25	162,00
-4515,86	228,00
-4502,49	254,00
-4489,13	202,00
-4475,80	293,00
-4462,49	203,00
-4449,21	246,00
-4435,94	117,00
-4422,70	267,00
-4409,47	191,00
-4396,27	206,00
-4383,09	164,00
-4369,93	173,00
-4356,79	80,00
-4343,67	173,00
-4330,58	168,00
-4317,50	264,00
-4304,45	123,00
-4291,41	141,00
-4278,40	189,00
-4265,41	83,00
-4252,44	199,00
-4239,49	190,00
-4226,55	154,00
-4213,65	219,00
-4200,76	187,00
-4187,89	68,00
-4175,04	183,00
-4162,21	75,00
-4149,40	105,00
-4136,61	106,00
-4123,85	210,00
-4111,10	141,00
-4098,37	22,00
-4085,66	141,00
-4072,98	119,00
-4060,31	140,00
-4047,66	-23,00
-4035,04	159,00
-4022,43	132,00
-4009,84	179,00
-3997,27	170,00
-3984,72	67,00
-3972,19	114,00
-3959,69	68,00
-3947,20	87,00
-3934,73	164,00
-3922,27	112,00
-3909,84	58,00
-3897,43	184,00
-3885,04	272,00
-3872,67	-9,00
-3860,31	144,00
-3847,98	215,00
-3835,66	156,00
-3823,36	133,00
-3811,09	48,00
-3798,83	199,00
-3786,59	103,00
-3774,37	30,00
-3762,17	146,00
-3749,98	106,00
-3737,82	232,00
-3725,67	116,00
-3713,55	66,00
-3701,44	180,00
-3689,35	97,00
-3677,28	137,00
-3665,22	210,00
-3653,19	20,00
-3641,17	116,00
-3629,18	100,00
-3617,20	70,00
-3605,24	170,00
-3593,30	86,00
-3581,37	68,00
-3569,47	-16,00
-3557,58	-9,00
-3545,71	93,00
-3533,86	175,00
-3522,02	142,00
-3510,21	59,00
-3498,41	55,00
-3486,63	79,00
-3474,87	-48,00
-3463,12	212,00
-3451,40	29,00
-3439,69	86,00
-3428,00	61,00
-3416,33	39,00
-3404,67	71,00
-3393,03	79,00
-3381,41	77,00
-3369,81	117,00
-3358,22	81,00
-3346,66	180,00
-3335,10	100,00
-3323,57	106,00
-3312,06	120,00
-3300,56	118,00
-3289,08	127,00
-3277,61	-42,00
-3266,16	61,00
-3254,73	232,00
-3243,32	157,00
-3231,92	79,00
-3220,55	140,00
-3209,18	153,00
-3197,84	63,00
-3186,51	18,00
-3175,20	47,00
-3163,90	33,00
-3152,63	3,00
-3141,36	157,00
-3130,12	109,00
-3118,89	137,00
-3107,68	47,00
-3096,49	93,00
-3085,31	73,00
-3074,15	101,00
-3063,00	137,00
-3051,87	222,00
-3040,76	104,00
-3029,67	39,00
-3018,59	54,00
-3007,52	147,00
-2996,48	39,00
-2985,44	142,00
-2974,43	174,00
-2963,43	66,00
-2952,45	11,00
-2941,48	130,00
-2930,53	129,00
-2919,60	223,00
-2908,68	61,00
-2897,78	89,00
-2886,89	117,00
-2876,02	-8,00
-2865,17	99,00
-2854,33	64,00
-2843,50	183,00
-2832,70	239,00
-2821,90	120,00
-2811,13	68,00
-2800,37	174,00
-2789,62	224,00
-2778,89	130,00
-2768,18	151,00
-2757,48	124,00
-2746,80	220,00
-2736,13	29,00
-2725,48	133,00
-2714,84	-33,00
-2704,22	41,00
-2693,61	163,00
-2683,02	151,00
-2672,45	110,00
-2661,89	132,00
-2651,34	162,00
-2640,81	110,00
-2630,30	57,00
-2619,80	40,00
-2609,31	-44,00
-2598,84	45,00
-2588,39	57,00
-2577,95	124,00
-2567,52	-11,00
-2557,11	62,00
-2546,71	84,00
-2536,33	148,00
-2525,97	95,00
-2515,62	256,00
-2505,28	162,00
-2494,96	23,00
-2484,65	75,00
-2474,36	252,00
-2464,08	147,00
-2453,82	80,00
-2443,57	82,00
-2433,33	158,00
-2423,11	90,00
-2412,91	191,00
-2402,72	61,00
-2392,54	43,00
-2382,38	159,00
-2372,23	97,00
-2362,09	4341,00
-2351,97	161,00
-2341,87	216,00
-2331,78	113,00
-2321,70	77,00
-2311,64	164,00
-2301,59	177,00
-2291,55	63,00
-2281,53	106,00
-2271,53	145,00
-2261,53	23,00
-2251,55	163,00
-2241,59	25,00
-2231,64	191,00
-2221,70	94,00
-2211,78	122,00
-2201,87	-17,00
-2191,97	102,00
-2182,09	113,00
-2172,22	158,00
-2162,37	-10,00
-2152,53	47,00
-2142,70	-17,00
-2132,89	133,00
-2123,09	107,00
-2113,30	184,00
-2103,53	74,00
-2093,77	39,00
-2084,02	181,00
-2074,29	90,00
-2064,57	109,00
-2054,86	130,00
-2045,17	88,00
-2035,49	84,00
-2025,82	69,00
-2016,17	110,00
-2006,53	93,00
-1996,91	133,00
-1987,29	115,00
-1977,69	234,00
-1968,11	70,00
-1958,53	99,00
-1948,97	158,00
-1939,42	158,00
-1929,89	59,00
-1920,37	151,00
-1910,86	200,00
-1901,36	92,00
-1891,88	198,00
-1882,41	108,00
-1872,95	81,00
-1863,51	252,00
-1854,08	83,00
-1844,66	89,00
-1835,26	167,00
-1825,86	153,00
-1816,48	89,00
-1807,11	5,00
-1797,76	-33,00
-1788,42	112,00
-1779,09	14,00
-1769,77	185,00
-1760,47	155,00
-1751,17	127,00
-1741,89	52,00
-1732,63	127,00
-1723,37	143,00
-1714,13	49,00
-1704,90	118,00
-1695,68	187,00
-1686,48	93,00
-1677,29	164,00
-1668,11	125,00
-1658,94	112,00
-1649,78	35,00
-1640,64	-21,00
-1631,51	156,00
-1622,39	99,00
-1613,28	104,00
-1604,19	183,00
-1595,10	202,00
-1586,03	118,00
-1576,97	233,00
-1567,93	112,00
-1558,89	96,00
-1549,87	80,00
-1540,86	16,00
-1531,86	251,00
-1522,87	36,00
-1513,90	15,00
-1504,93	160,00
-1495,98	97,00
-1487,04	175,00
-1478,12	269,00
-1469,20	89,00
-1460,30	113,00
-1451,40	100,00
-1442,52	112,00
-1433,65	120,00
-1424,80	131,00
-1415,95	104,00
-1407,12	250,00
-1398,30	117,00
-1389,48	-76,00
-1380,69	52,00
-1371,90	174,00
-1363,12	-10,00
-1354,36	273,00
-1345,60	59,00
-1336,86	65,00
-1328,13	159,00
-1319,41	115,00
-1310,70	23,00
-1302,01	66,00
-1293,32	68,00
-1284,65	73,00
-1275,99	134,00
-1267,33	159,00
-1258,69	180,00
-1250,06	130,00
-1241,45	129,00
-1232,84	178,00
-1224,25	123,00
-1215,66	149,00
-1207,09	-18,00
-1198,53	265,00
-1189,97	18,00
-1181,43	205,00
-1172,91	28,00
-1164,39	153,00
-1155,88	93,00
-1147,38	132,00
-1138,90	127,00
-1130,43	120,00
-1121,96	130,00
-1113,51	111,00
-1105,07	203,00
-1096,64	68,00
-1088,22	151,00
-1079,81	163,00
-1071,41	58,00
-1063,02	117,00
-1054,65	-23,00
-1046,28	105,00
-1037,92	81,00
-1029,58	126,00
-1021,24	110,00
-1012,92	168,00
-1004,61	78,00
-996,30	105,00
-988,01	119,00
-979,73	72,00
-971,46	211,00
-963,20	19,00
-954,95	125,00
-946,71	169,00
-938,48	82,00
-930,26	124,00
-922,06	105,00
-913,86	117,00
-905,67	120,00
-897,49	199,00
-889,33	49,00
-881,17	60,00
-873,02	151,00
-864,89	11,00
-856,76	75,00
-848,65	90,00
-840,54	128,00
-832,45	90,00
-824,36	81,00
-816,29	201,00
-808,22	32,00
-800,17	129,00
-792,12	227,00
-784,09	86,00
-776,06	99,00
-768,05	110,00
-760,04	252,00
-752,05	37,00
-744,07	46,00
-736,09	89,00
-728,13	172,00
-720,17	115,00
-712,23	128,00
-704,29	211,00
-696,37	2,00
-688,45	102,00
-680,55	145,00
-672,65	154,00
-664,77	110,00
-656,89	59,00
-649,03	66,00
-641,17	53,00
-633,32	159,00
-625,49	48,00
-617,66	108,00
-609,84	103,00
-602,03	82,00
-594,23	150,00
-586,45	210,00
-578,67	151,00
-570,90	112,00
-563,14	168,00
-555,39	52,00
-547,65	136,00
-539,91	147,00
-532,19	147,00
-524,48	111,00
-516,78	-10,00
-509,08	108,00
-501,40	88,00
-493,72	118,00
-486,06	151,00
-478,40	186,00
-470,76	223,00
-463,12	81,00
-455,49	106,00
-447,87	195,00
-440,26	46,00
-432,66	88,00
-425,07	97,00
-417,49	196,00
-409,92	79,00
-402,35	79,00
-394,80	123,00
-387,25	88,00
-379,72	180,00
-372,19	111,00
-364,67	250,00
-357,17	103,00
-349,67	191,00
-342,18	273,00
-334,69	162,00
-327,22	181,00
-319,76	143,00
-312,30	168,00
-304,86	194,00
-297,42	145,00
-290,00	201,00
-282,58	189,00
-275,17	299,00
-267,77	176,00
-260,37	239,00
-252,99	159,00
-245,62	313,00
-238,25	90,00
-230,90	144,00
-223,55	183,00
-216,21	269,00
-208,88	239,00
-201,56	303,00
-194,25	221,00
-186,94	354,00
-179,65	387,00
-172,36	362,00
-165,08	433,00
-157,81	428,00
-150,55	428,00
-143,30	633,00
-136,06	446,00
-128,82	625,00
-121,60	626,00
-114,38	652,00
-107,17	761,00
-99,97	919,00
-92,78	1002,00
-85,60	1009,00
-78,42	1346,00
-71,25	1498,00
-64,10	1639,00
-56,95	1856,00
-49,81	2263,00
-42,67	2719,00
-35,55	3405,00
-28,43	4463,00
-21,33	7336,00
-14,23	22757,00
-7,14	56043,00
-0,05	55763,00
7,02	55513,00
14,09	55717,00
21,14	24313,00
28,19	9589,00
35,23	6025,00
42,27	4450,00
49,29	3673,00
56,31	3238,00
63,32	2632,00
70,32	2186,00
77,31	1756,00
84,29	1592,00
91,27	1414,00
98,23	1350,00
105,19	1220,00
112,14	1176,00
119,09	1603,00
126,02	2372,00
132,95	2799,00
139,87	2687,00
146,78	2691,00
153,68	2751,00
160,58	2567,00
167,46	2576,00
174,34	2540,00
181,21	2493,00
188,08	2540,00
194,93	2374,00
201,78	2609,00
208,62	2368,00
215,45	2454,00
222,27	2432,00
229,09	2403,00
235,90	2394,00
242,70	2311,00
249,49	2324,00
256,27	2160,00
263,05	2170,00
269,82	2232,00
276,58	2228,00
283,33	2155,00
290,08	2232,00
296,82	2006,00
303,55	2064,00
310,27	2170,00
316,98	1970,00
323,69	2039,00
330,39	2051,00
337,08	1915,00
343,76	2136,00
350,44	1915,00
357,11	1963,00
363,77	1985,00
370,42	1949,00
377,07	1839,00
383,71	1942,00
390,34	1954,00
396,96	1973,00
403,58	1818,00
410,19	1978,00
416,79	1934,00
423,38	2027,00
429,97	1838,00
436,55	1720,00
443,12	1743,00
449,68	1757,00
456,24	1825,00
462,79	1748,00
469,33	1754,00
475,86	1630,00
482,39	1767,00
488,91	1881,00
495,42	1626,00
501,93	1528,00
508,42	1634,00
514,91	1692,00
521,40	1627,00
527,87	1550,00
534,34	1536,00
540,80	1451,00
547,25	1564,00
553,70	1553,00
560,14	1477,00
566,57	1529,00
573,00	1582,00
579,41	1463,00
585,83	1564,00
592,23	1519,00
598,62	1370,00
605,01	1486,00
611,40	1556,00
617,77	1559,00
624,14	1484,00
630,50	1450,00
636,85	1490,00
643,20	1434,00
649,54	1486,00
655,87	1469,00
662,20	1372,00
668,52	1421,00
674,83	1594,00
681,13	1327,00
687,43	1384,00
693,72	1377,00
700,00	1324,00
706,28	1344,00
712,55	1446,00
718,81	1347,00
725,07	1324,00
731,32	1391,00
737,56	1480,00
743,79	1503,00
750,02	1330,00
756,24	1388,00
762,46	1433,00
768,67	1337,00
774,87	1300,00
781,06	1465,00
787,25	1363,00
793,43	1362,00
799,60	1338,00
805,77	1394,00
811,93	1303,00
818,08	1295,00
824,23	1394,00
830,37	1309,00
836,50	1259,00
842,63	1394,00
848,75	1263,00
854,87	1272,00
860,97	1323,00
867,07	1414,00
873,17	1296,00
879,25	1243,00
885,33	1395,00
891,41	1346,00
897,47	1355,00
903,53	1239,00
909,59	1224,00
915,63	1398,00
921,67	1258,00
927,71	1335,00
933,74	1315,00
939,76	1187,00
945,77	1231,00
951,78	1238,00
957,78	1239,00
963,78	1268,00
969,77	1128,00
975,75	1175,00
981,72	1206,00
987,69	1303,00
993,66	1237,00
999,61	1243,00
1005,56	1172,00
1011,51	1331,00
1017,44	1341,00
1023,37	1206,00
1029,30	1183,00
1035,22	1229,00
1041,13	1176,00
1047,03	1370,00
1052,93	1391,00
1058,83	1612,00
1064,71	1748,00
1070,59	1662,00
1076,47	1385,00
1082,33	1327,00
1088,20	1354,00
1094,05	1184,00
1099,90	1180,00
1105,74	1213,00
1111,58	1142,00
1117,41	1246,00
1123,23	1370,00
1129,05	1645,00
1134,86	1536,00
1140,67	1298,00
1146,47	1236,00
1152,26	1293,00
1158,05	1077,00
1163,83	1180,00
1169,60	1285,00
1175,37	1145,00
1181,13	1087,00
1186,89	1041,00
1192,64	1085,00
1198,38	1108,00
1204,12	1126,00
1209,85	1027,00
1215,58	985,00
1221,30	1072,00
1227,02	1064,00
1232,72	1164,00
1238,43	1135,00
1244,12	1030,00
1249,81	1104,00
1255,50	1153,00
1261,17	1056,00
1266,85	1087,00
1272,51	1253,00
1278,17	1151,00
1283,83	1420,00
1289,47	1630,00
1295,12	1990,00
1300,75	1996,00
1306,38	1697,00
1312,01	1458,00
1317,63	1269,00
1323,24	1273,00
1328,85	1262,00
1334,45	1305,00
1340,04	1256,00
1345,63	1222,00
1351,22	1236,00
1356,80	1249,00
1362,37	1302,00
1367,93	1439,00
1373,49	1151,00
1379,05	1387,00
1384,60	1216,00
1390,14	1210,00
1395,68	1155,00
1401,21	1261,00
1406,74	1333,00
1412,26	1326,00
1417,77	1440,00
1423,28	1539,00
1428,78	1662,00
1434,28	2020,00
1439,77	2184,00
1445,26	2089,00
1450,74	2095,00
1456,22	1867,00
1461,68	1904,00
1467,15	1803,00
1472,61	1600,00
1478,06	1430,00
1483,51	1230,00
1488,95	1194,00
1494,38	1186,00
1499,81	1132,00
1505,24	1233,00
1510,65	949,00
1516,07	1005,00
1521,48	901,00
1526,88	1053,00
1532,27	1043,00
1537,67	1022,00
1543,05	1001,00
1548,43	974,00
1553,81	1066,00
1559,18	850,00
1564,54	1000,00
1569,90	959,00
1575,25	900,00
1580,60	845,00
1585,94	986,00
1591,28	878,00
1596,61	904,00
1601,93	1021,00
1607,25	939,00
1612,57	880,00
1617,88	910,00
1623,18	971,00
1628,48	883,00
1633,77	986,00
1639,06	941,00
1644,34	845,00
1649,62	900,00
1654,89	887,00
1660,16	823,00
1665,42	746,00
1670,67	908,00
1675,92	819,00
1681,17	811,00
1686,41	850,00
1691,64	755,00
1696,87	987,00
1702,10	675,00
1707,32	884,00
1712,53	787,00
1717,74	716,00
1722,94	871,00
1728,14	726,00
1733,33	723,00
1738,52	762,00
1743,70	713,00
1748,88	828,00
1754,05	660,00
1759,22	843,00
1764,38	684,00
1769,53	739,00
1774,69	582,00
1779,83	760,00
1784,97	781,00
1790,11	810,00
1795,24	663,00
1800,36	706,00
1805,48	722,00
1810,60	811,00
1815,71	650,00
1820,82	660,00
1825,92	579,00
1831,01	593,00
1836,10	745,00
1841,19	640,00
1846,26	607,00
1851,34	619,00
1856,41	733,00
1861,47	701,00
1866,53	569,00
1871,59	592,00
1876,64	661,00
1881,68	658,00
1886,72	606,00
1891,76	592,00
1896,79	674,00
1901,81	480,00
1906,83	533,00
1911,85	638,00
1916,86	606,00
1921,86	605,00
1926,86	686,00
1931,86	594,00
1936,85	462,00
1941,83	633,00
1946,81	448,00
1951,79	634,00
1956,76	597,00
1961,72	533,00
1966,68	533,00
1971,64	459,00
1976,59	483,00
1981,54	440,00
1986,48	527,00
1991,42	394,00
1996,35	553,00
2001,27	441,00
2006,20	469,00
2011,11	428,00
2016,03	501,00
2020,93	505,00
2025,84	435,00
2030,73	554,00
2035,63	439,00
2040,52	468,00
2045,40	427,00
2050,28	493,00
2055,15	530,00
2060,02	410,00
2064,89	481,00
2069,75	421,00
2074,60	540,00
2079,46	397,00
2084,30	481,00
2089,14	367,00
2093,98	397,00
2098,81	414,00
2103,64	484,00
2108,46	504,00
2113,28	495,00
2118,09	409,00
2122,90	479,00
2127,70	456,00
2132,50	478,00
2137,30	354,00
2142,09	283,00
2146,87	473,00
2151,66	451,00
2156,43	420,00
2161,20	518,00
2165,97	392,00
2170,73	359,00
2175,49	469,00
2180,24	447,00
2184,99	503,00
2189,74	398,00
2194,48	286,00
2199,21	492,00
2203,94	410,00
2208,67	477,00
2213,39	412,00
2218,11	538,00
2222,82	394,00
2227,53	437,00
2232,23	412,00
2236,93	460,00
2241,63	378,00
2246,32	466,00
2251,00	406,00
2255,68	446,00
2260,36	442,00
2265,03	398,00
2269,70	353,00
2274,36	392,00
2279,02	357,00
2283,68	222,00
2288,33	381,00
2292,97	410,00
2297,61	293,00
2302,25	317,00
2306,88	346,00
2311,51	357,00
2316,14	427,00
2320,75	373,00
2325,37	308,00
2329,98	334,00
2334,59	353,00
2339,19	413,00
2343,79	264,00
2348,38	324,00
2352,97	376,00
2357,55	375,00
2362,13	390,00
2366,71	235,00
2371,28	428,00
2375,85	320,00
2380,41	388,00
2384,97	284,00
2389,52	318,00
2394,07	324,00
2398,62	325,00
2403,16	307,00
2407,70	239,00
2412,23	262,00
2416,76	389,00
2421,29	267,00
2425,81	200,00
2430,32	404,00
2434,84	273,00
2439,34	331,00
2443,85	292,00
2448,35	322,00
2452,84	350,00
2457,33	310,00
2461,82	318,00
2466,30	286,00
2470,78	284,00
2475,25	286,00
2479,72	182,00
2484,19	324,00
2488,65	278,00
2493,11	311,00
2497,56	334,00
2502,01	281,00
2506,46	316,00
2510,90	231,00
2515,34	286,00
2519,77	344,00
2524,20	313,00
2528,62	341,00
2533,04	251,00
2537,46	311,00
2541,87	309,00
2546,28	313,00
2550,68	296,00
2555,08	278,00
2559,48	342,00
2563,87	306,00
2568,26	366,00
2572,64	258,00
2577,02	274,00
2581,40	330,00
2585,77	307,00
2590,14	300,00
2594,50	343,00
2598,86	319,00
2603,22	226,00
2607,57	214,00
2611,92	279,00
2616,26	249,00
2620,60	262,00
2624,94	326,00
2629,27	196,00
2633,60	233,00
2637,92	309,00
2642,24	277,00
2646,56	259,00
2650,87	201,00
2655,18	330,00
2659,48	152,00
2663,78	334,00
2668,08	294,00
2672,37	288,00
2676,66	329,00
2680,95	463,00
2685,23	303,00
2689,50	329,00
2693,78	262,00
2698,05	486,00
2702,31	257,00
2706,57	397,00
2710,83	345,00
2715,08	501,00
2719,33	312,00
2723,58	298,00
2727,82	380,00
2732,06	409,00
2736,29	241,00
2740,53	341,00
2744,75	274,00
2748,97	469,00
2753,19	411,00
2757,41	343,00
2761,62	328,00
2765,83	431,00
2770,03	248,00
2774,23	253,00
2778,43	330,00
2782,62	285,00
2786,81	323,00
2791,00	349,00
2795,18	430,00
2799,35	365,00
2803,53	447,00
2807,70	461,00
2811,86	464,00
2816,03	413,00
2820,19	510,00
2824,34	520,00
2828,49	570,00
2832,64	585,00
2836,78	831,00
2840,92	973,00
2845,06	1187,00
2849,19	1344,00
2853,32	1462,00
2857,45	1395,00
2861,57	1317,00
2865,69	1382,00
2869,80	1240,00
2873,91	1329,00
2878,02	1435,00
2882,12	1573,00
2886,22	1545,00
2890,32	1452,00
2894,41	1363,00
2898,50	1267,00
2902,58	1205,00
2906,67	1158,00
2910,74	1232,00
2914,82	1057,00
2918,89	939,00
2922,96	977,00
2927,02	861,00
2931,08	792,00
2935,13	706,00
2939,19	705,00
2943,24	689,00
2947,28	633,00
2951,32	465,00
2955,36	495,00
2959,40	311,00
2963,43	452,00
2967,46	304,00
2971,48	415,00
2975,50	420,00
2979,52	290,00
2983,53	442,00
2987,54	241,00
2991,55	325,00
2995,55	240,00
2999,55	323,00
3003,54	336,00
3007,54	144,00
3011,53	262,00
3015,51	204,00
3019,49	303,00
3023,47	125,00
3027,45	213,00
3031,42	238,00
3035,39	181,00
3039,35	101,00
3043,31	159,00
3047,27	284,00
3051,22	206,00
3055,17	176,00
3059,12	227,00
3063,06	244,00
3067,00	313,00
3070,94	260,00
3074,87	227,00
3078,80	112,00
3082,73	191,00
3086,65	170,00
3090,57	154,00
3094,49	203,00
3098,40	125,00
3102,31	120,00
3106,22	134,00
3110,12	130,00
3114,02	136,00
3117,92	71,00
3121,81	221,00
3125,70	212,00
3129,58	195,00
3133,47	166,00
3137,34	106,00
3141,22	148,00
3145,09	181,00
3148,96	73,00
3152,83	239,00
3156,69	202,00
3160,55	183,00
3164,40	220,00
3168,26	234,00
3172,10	143,00
3175,95	192,00
3179,79	104,00
3183,63	141,00
3187,47	157,00
3191,30	3,00
3195,13	144,00
3198,95	68,00
3202,78	202,00
3206,60	185,00
3210,41	120,00
3214,23	172,00
3218,03	175,00
3221,84	165,00
3225,64	122,00
3229,44	126,00
3233,24	189,00
3237,03	218,00
3240,82	108,00
3244,61	136,00
3248,39	164,00
3252,17	233,00
3255,95	75,00
3259,72	182,00
3263,49	103,00
3267,26	175,00
3271,03	118,00
3274,79	144,00
3278,54	157,00
3282,30	110,00
3286,05	214,00
3289,80	120,00
3293,54	182,00
3297,29	163,00
3301,02	263,00
3304,76	149,00
3308,49	135,00
3312,22	198,00
3315,95	83,00
3319,67	124,00
3323,39	180,00
3327,10	154,00
3330,82	241,00
3334,53	218,00
3338,24	174,00
3341,94	63,00
3345,64	134,00
3349,34	129,00
3353,03	160,00
3356,72	123,00
3360,41	165,00
3364,10	94,00
3367,78	163,00
3371,46	78,00
3375,13	159,00
3378,81	197,00
3382,48	157,00
3386,14	211,00
3389,81	156,00
3393,47	86,00
3397,12	222,00
3400,78	69,00
3404,43	183,00
3408,08	55,00
3411,72	135,00
3415,36	187,00
3419,00	286,00
3422,64	145,00
3426,27	243,00
3429,90	152,00
3433,53	146,00
3437,15	5,00
3440,77	37,00
3444,39	176,00
3448,00	197,00
3451,62	146,00
3455,22	147,00
3458,83	108,00
3462,43	79,00
3466,03	163,00
3469,63	73,00
3473,22	114,00
3476,81	183,00
3480,40	72,00
3483,99	187,00
3487,57	101,00
3491,15	26,00
3494,72	112,00
3498,29	81,00
3501,86	176,00
3505,43	125,00
3508,99	46,00
3512,56	157,00
3516,11	216,00
3519,67	92,00
3523,22	107,00
3526,77	140,00
3530,32	82,00
3533,86	177,00
3537,40	25,00
3540,94	67,00
3544,47	92,00
3548,00	117,00
3551,53	148,00
3555,06	47,00
3558,58	137,00
3562,10	120,00
3565,62	159,00
3569,13	52,00
3572,64	89,00
3576,15	79,00
3579,66	76,00
3583,16	204,00
3586,66	85,00
3590,16	140,00
3593,65	30,00
3597,14	159,00
3600,63	35,00
3604,11	102,00
3607,60	153,00
3611,08	8,00
3614,55	194,00
3618,03	156,00
3621,50	-5,00
3624,97	74,00
3628,43	32,00
3631,90	139,00
3635,36	150,00
3638,81	56,00
3642,27	137,00
3645,72	56,00
3649,17	156,00
3652,61	79,00
3656,06	84,00
3659,50	62,00
3662,93	134,00
3666,37	170,00
3669,80	114,00
3673,23	172,00
3676,65	168,00
3680,08	57,00
3683,50	113,00
3686,92	145,00
3690,33	13,00
3693,74	125,00
3697,15	74,00
3700,56	25,00
3703,96	62,00
3707,36	27,00
3710,76	52,00
3714,16	137,00
3717,55	94,00
3720,94	194,00
3724,33	66,00
3727,71	-47,00
3731,10	94,00
3734,48	133,00
3737,85	44,00
3741,23	73,00
3744,60	162,00
3747,97	62,00
3751,33	139,00
3754,69	113,00
3758,05	-14,00
3761,41	131,00
3764,77	122,00
3768,12	50,00
3771,47	83,00
3774,82	123,00
3778,16	1,00
3781,50	9,00
3784,84	7,00
3788,18	3,00
>>>>>End Processed Spectral Data<<<<<
