SpectraSuite Data File
++++++++++++++++++++++++++++++++++++
Date: Wed Feb 11 17:14:38 ICT 2026
User: Administrator
Dark Spectrum Present: Yes
Reference Spectrum Present: No
Number of Sampled Component Spectra: 1
Spectrometers: MAYP113682
Integration Time (usec): 3000000 (MAYP113682)
Spectra Averaged: 1 (MAYP113682)
Boxcar Smoothing: 0 (MAYP113682)
Correct for Electrical Dark: No (MAYP113682)
Strobe/Lamp Enabled: No (MAYP113682)
Correct for Detector Non-linearity: No (MAYP113682)
Correct for Stray Light: No (MAYP113682)
Number of Pixels in Processed Spectrum: 2068
>>>>>Begin Processed Spectral Data<<<<<
-37534,58	7,00
-37414,56	3,00
-37295,11	0,00
-37176,24	7,00
-37057,95	114,00
-36940,22	13,00
-36823,05	138,00
-36706,45	163,00
-36590,40	118,00
-36474,90	124,00
-36359,95	75,00
-36245,55	85,00
-36131,68	98,00
-36018,35	142,00
-35905,55	197,00
-35793,29	98,00
-35681,54	183,00
-35570,32	166,00
-35459,62	184,00
-35349,43	102,00
-35239,75	235,00
-35130,58	210,00
-35021,91	69,00
-34913,74	69,00
-34806,07	53,00
-34698,89	163,00
-34592,20	212,00
-34486,00	84,00
-34380,28	106,00
-34275,04	140,00
-34170,27	90,00
-34065,98	48,00
-33962,16	74,00
-33858,81	231,00
-33755,92	82,00
-33653,49	101,00
-33551,52	123,00
-33450,01	22,00
-33348,94	117,00
-33248,33	75,00
-33148,16	125,00
-33048,43	127,00
-32949,14	104,00
-32850,29	130,00
-32751,87	218,00
-32653,89	205,00
-32556,33	-6,00
-32459,20	218,00
-32362,49	157,00
-32266,19	97,00
-32170,32	127,00
-32074,86	82,00
-31979,82	109,00
-31885,18	144,00
-31790,95	124,00
-31697,12	87,00
-31603,69	114,00
-31510,67	173,00
-31418,04	211,00
-31325,80	147,00
-31233,95	357,00
-31142,49	115,00
-31051,42	84,00
-30960,73	148,00
-30870,43	155,00
-30780,50	107,00
-30690,95	99,00
-30601,77	198,00
-30512,97	84,00
-30424,53	176,00
-30336,46	73,00
-30248,76	160,00
-30161,42	169,00
-30074,44	107,00
-29987,81	67,00
-29901,55	201,00
-29815,63	154,00
-29730,07	197,00
-29644,86	167,00
-29560,00	169,00
-29475,48	224,00
-29391,30	72,00
-29307,47	99,00
-29223,97	90,00
-29140,81	2,00
-29057,99	216,00
-28975,50	111,00
-28893,34	121,00
-28811,51	74,00
-28730,00	188,00
-28648,82	259,00
-28567,97	197,00
-28487,43	147,00
-28407,21	110,00
-28327,32	130,00
-28247,73	147,00
-28168,46	222,00
-28089,50	132,00
-28010,85	69,00
-27932,51	147,00
-27854,48	126,00
-27776,75	181,00
-27699,32	1,00
-27622,19	268,00
-27545,37	144,00
-27468,84	147,00
-27392,60	185,00
-27316,66	68,00
-27241,01	166,00
-27165,66	161,00
-27090,59	54,00
-27015,81	105,00
-26941,31	129,00
-26867,10	206,00
-26793,17	155,00
-26719,52	180,00
-26646,15	119,00
-26573,06	52,00
-26500,24	123,00
-26427,70	185,00
-26355,43	155,00
-26283,43	166,00
-26211,71	183,00
-26140,25	218,00
-26069,06	222,00
-25998,13	107,00
-25927,46	97,00
-25857,06	64,00
-25786,92	181,00
-25717,04	173,00
-25647,42	169,00
-25578,05	225,00
-25508,94	91,00
-25440,09	157,00
-25371,48	140,00
-25303,13	83,00
-25235,02	115,00
-25167,17	84,00
-25099,56	169,00
-25032,19	138,00
-24965,07	60,00
-24898,20	174,00
-24831,56	99,00
-24765,17	199,00
-24699,01	141,00
-24633,10	188,00
-24567,41	190,00
-24501,97	166,00
-24436,75	144,00
-24371,77	132,00
-24307,03	221,00
-24242,51	139,00
-24178,22	59,00
-24114,16	133,00
-24050,32	181,00
-23986,71	119,00
-23923,32	254,00
-23860,16	86,00
-23797,22	145,00
-23734,50	126,00
-23672,00	120,00
-23609,71	81,00
-23547,65	105,00
-23485,80	246,00
-23424,16	125,00
-23362,74	156,00
-23301,53	102,00
-23240,54	110,00
-23179,75	251,00
-23119,17	155,00
-23058,80	97,00
-22998,64	204,00
-22938,68	104,00
-22878,93	149,00
-22819,39	140,00
-22760,04	118,00
-22700,90	85,00
-22641,96	169,00
-22583,22	205,00
-22524,68	50,00
-22466,33	163,00
-22408,19	141,00
-22350,23	134,00
-22292,48	155,00
-22234,92	75,00
-22177,55	180,00
-22120,37	164,00
-22063,38	129,00
-22006,58	109,00
-21949,98	156,00
-21893,56	128,00
-21837,33	106,00
-21781,28	218,00
-21725,42	61,00
-21669,74	135,00
-21614,25	163,00
-21558,94	136,00
-21503,81	167,00
-21448,86	36,00
-21394,10	177,00
-21339,51	174,00
-21285,10	73,00
-21230,86	42,00
-21176,81	202,00
-21122,93	74,00
-21069,22	130,00
-21015,69	189,00
-20962,33	128,00
-20909,14	163,00
-20856,13	194,00
-20803,28	190,00
-20750,61	139,00
-20698,10	132,00
-20645,76	105,00
-20593,59	198,00
-20541,59	146,00
-20489,75	148,00
-20438,07	130,00
-20386,56	208,00
-20335,22	159,00
-20284,03	128,00
-20233,01	98,00
-20182,15	102,00
-20131,45	78,00
-20080,91	37,00
-20030,52	66,00
-19980,30	128,00
-19930,23	113,00
-19880,32	230,00
-19830,56	165,00
-19780,96	132,00
-19731,52	184,00
-19682,23	229,00
-19633,09	86,00
-19584,10	159,00
-19535,26	176,00
-19486,58	203,00
-19438,04	230,00
-19389,66	110,00
-19341,42	158,00
-19293,33	-30,00
-19245,39	105,00
-19197,60	28,00
-19149,95	170,00
-19102,45	192,00
-19055,09	186,00
-19007,87	147,00
-18960,80	192,00
-18913,87	173,00
-18867,09	143,00
-18820,44	160,00
-18773,94	86,00
-18727,57	60,00
-18681,35	233,00
-18635,26	197,00
-18589,31	147,00
-18543,50	180,00
-18497,83	128,00
-18452,29	164,00
-18406,89	-17,00
-18361,63	93,00
-18316,50	101,00
-18271,50	45,00
-18226,63	75,00
-18181,90	189,00
-18137,30	232,00
-18092,84	72,00
-18048,50	184,00
-18004,29	212,00
-17960,22	228,00
-17916,27	86,00
-17872,45	145,00
-17828,76	204,00
-17785,20	108,00
-17741,77	109,00
-17698,46	166,00
-17655,28	67,00
-17612,22	75,00
-17569,29	141,00
-17526,48	172,00
-17483,79	165,00
-17441,23	88,00
-17398,79	82,00
-17356,48	93,00
-17314,28	220,00
-17272,21	285,00
-17230,26	76,00
-17188,42	181,00
-17146,71	114,00
-17105,12	66,00
-17063,64	169,00
-17022,28	99,00
-16981,04	173,00
-16939,92	103,00
-16898,91	218,00
-16858,02	27,00
-16817,25	-30,00
-16776,59	133,00
-16736,04	51,00
-16695,61	81,00
-16655,29	83,00
-16615,09	138,00
-16574,99	179,00
-16535,01	140,00
-16495,15	181,00
-16455,39	137,00
-16415,74	125,00
-16376,21	120,00
-16336,78	143,00
-16297,46	126,00
-16258,26	154,00
-16219,16	78,00
-16180,17	151,00
-16141,28	83,00
-16102,51	132,00
-16063,84	213,00
-16025,27	129,00
-15986,82	57,00
-15948,46	209,00
-15910,22	198,00
-15872,07	200,00
-15834,04	79,00
-15796,10	113,00
-15758,27	173,00
-15720,54	101,00
-15682,91	157,00
-15645,39	229,00
-15607,97	179,00
-15570,64	110,00
-15533,42	204,00
-15496,30	-1,00
-15459,28	184,00
-15422,36	153,00
-15385,54	74,00
-15348,82	192,00
-15312,19	148,00
-15275,66	214,00
-15239,23	7,00
-15202,90	139,00
-15166,67	114,00
-15130,53	111,00
-15094,48	232,00
-15058,54	135,00
-15022,68	207,00
-14986,93	282,00
-14951,26	72,00
-14915,69	154,00
-14880,22	183,00
-14844,84	89,00
-14809,55	177,00
-14774,35	108,00
-14739,25	86,00
-14704,24	116,00
-14669,32	166,00
-14634,49	99,00
-14599,75	129,00
-14565,10	132,00
-14530,55	93,00
-14496,08	104,00
-14461,70	131,00
-14427,41	149,00
-14393,21	58,00
-14359,10	79,00
-14325,07	178,00
-14291,14	134,00
-14257,29	192,00
-14223,52	99,00
-14189,85	99,00
-14156,26	104,00
-14122,76	152,00
-14089,34	117,00
-14056,01	57,00
-14022,76	133,00
-13989,60	122,00
-13956,52	177,00
-13923,53	85,00
-13890,62	143,00
-13857,79	51,00
-13825,05	126,00
-13792,39	175,00
-13759,81	57,00
-13727,31	14,00
-13694,90	104,00
-13662,57	283,00
-13630,31	164,00
-13598,14	151,00
-13566,05	80,00
-13534,05	-20,00
-13502,12	177,00
-13470,27	105,00
-13438,50	150,00
-13406,80	142,00
-13375,19	136,00
-13343,66	151,00
-13312,20	238,00
-13280,83	165,00
-13249,53	152,00
-13218,30	31,00
-13187,16	89,00
-13156,09	186,00
-13125,10	166,00
-13094,18	126,00
-13063,34	127,00
-13032,58	143,00
-13001,89	174,00
-12971,28	122,00
-12940,74	73,00
-12910,27	228,00
-12879,88	130,00
-12849,57	225,00
-12819,33	135,00
-12789,16	244,00
-12759,06	138,00
-12729,04	115,00
-12699,09	-578,00
-12669,21	101,00
-12639,41	113,00
-12609,68	84,00
-12580,02	188,00
-12550,43	82,00
-12520,91	49,00
-12491,46	199,00
-12462,08	61,00
-12432,77	30,00
-12403,54	88,00
-12374,37	224,00
-12345,27	158,00
-12316,24	143,00
-12287,29	144,00
-12258,40	192,00
-12229,57	152,00
-12200,82	217,00
-12172,14	150,00
-12143,52	233,00
-12114,97	165,00
-12086,49	177,00
-12058,07	125,00
-12029,73	237,00
-12001,44	120,00
-11973,23	143,00
-11945,08	154,00
-11917,00	111,00
-11888,98	152,00
-11861,03	49,00
-11833,15	199,00
-11805,32	192,00
-11777,57	112,00
-11749,88	217,00
-11722,25	123,00
-11694,69	115,00
-11667,19	123,00
-11639,75	184,00
-11612,38	135,00
-11585,07	56,00
-11557,83	156,00
-11530,65	166,00
-11503,53	123,00
-11476,47	107,00
-11449,48	131,00
-11422,54	196,00
-11395,67	148,00
-11368,86	149,00
-11342,11	86,00
-11315,43	133,00
-11288,80	105,00
-11262,23	184,00
-11235,73	195,00
-11209,28	194,00
-11182,90	141,00
-11156,57	163,00
-11130,31	104,00
-11104,10	151,00
-11077,96	151,00
-11051,87	33,00
-11025,84	163,00
-10999,87	89,00
-10973,96	42,00
-10948,11	175,00
-10922,31	184,00
-10896,58	164,00
-10870,90	167,00
-10845,28	227,00
-10819,71	137,00
-10794,20	133,00
-10768,75	194,00
-10743,36	129,00
-10718,02	192,00
-10692,74	141,00
-10667,52	52,00
-10642,35	165,00
-10617,24	160,00
-10592,18	181,00
-10567,18	132,00
-10542,23	107,00
-10517,34	149,00
-10492,51	110,00
-10467,72	137,00
-10443,00	148,00
-10418,32	185,00
-10393,70	225,00
-10369,14	132,00
-10344,63	188,00
-10320,17	198,00
-10295,77	221,00
-10271,42	127,00
-10247,12	172,00
-10222,88	285,00
-10198,68	162,00
-10174,54	210,00
-10150,46	113,00
-10126,42	91,00
-10102,44	134,00
-10078,51	183,00
-10054,63	158,00
-10030,80	193,00
-10007,03	273,00
-9983,30	137,00
-9959,63	234,00
-9936,01	140,00
-9912,44	187,00
-9888,92	215,00
-9865,44	102,00
-9842,02	281,00
-9818,65	295,00
-9795,33	292,00
-9772,06	201,00
-9748,84	172,00
-9725,67	213,00
-9702,55	152,00
-9679,47	295,00
-9656,45	220,00
-9633,47	265,00
-9610,55	321,00
-9587,67	359,00
-9564,84	318,00
-9542,06	408,00
-9519,32	310,00
-9496,64	284,00
-9474,00	487,00
-9451,41	448,00
-9428,87	349,00
-9406,37	372,00
-9383,92	243,00
-9361,52	343,00
-9339,17	509,00
-9316,86	491,00
-9294,60	518,00
-9272,38	549,00
-9250,21	626,00
-9228,09	707,00
-9206,01	686,00
-9183,98	662,00
-9162,00	462,00
-9140,06	468,00
-9118,16	477,00
-9096,31	498,00
-9074,51	562,00
-9052,75	703,00
-9031,04	480,00
-9009,37	521,00
-8987,74	446,00
-8966,16	376,00
-8944,63	314,00
-8923,14	422,00
-8901,69	349,00
-8880,29	355,00
-8858,93	573,00
-8837,61	602,00
-8816,34	572,00
-8795,11	639,00
-8773,92	455,00
-8752,78	484,00
-8731,68	510,00
-8710,62	480,00
-8689,61	464,00
-8668,63	552,00
-8647,70	599,00
-8626,82	599,00
-8605,97	595,00
-8585,17	488,00
-8564,41	458,00
-8543,69	435,00
-8523,01	359,00
-8502,37	391,00
-8481,78	451,00
-8461,23	573,00
-8440,71	509,00
-8420,24	696,00
-8399,81	578,00
-8379,42	708,00
-8359,08	519,00
-8338,77	500,00
-8318,50	633,00
-8298,27	538,00
-8278,09	451,00
-8257,94	473,00
-8237,83	756,00
-8217,76	594,00
-8197,74	641,00
-8177,75	725,00
-8157,80	567,00
-8137,89	533,00
-8118,02	473,00
-8098,19	581,00
-8078,40	522,00
-8058,65	623,00
-8038,93	447,00
-8019,26	515,00
-7999,62	465,00
-7980,02	505,00
-7960,46	461,00
-7940,94	423,00
-7921,46	451,00
-7902,01	405,00
-7882,60	339,00
-7863,23	430,00
-7843,90	520,00
-7824,61	453,00
-7805,35	558,00
-7786,13	518,00
-7766,95	510,00
-7747,80	587,00
-7728,69	432,00
-7709,62	451,00
-7690,59	592,00
-7671,59	628,00
-7652,63	589,00
-7633,70	633,00
-7614,81	555,00
-7595,96	472,00
-7577,15	357,00
-7558,37	511,00
-7539,62	526,00
-7520,91	538,00
-7502,24	559,00
-7483,60	525,00
-7465,00	502,00
-7446,44	393,00
-7427,91	442,00
-7409,41	177,00
-7390,95	400,00
-7372,53	309,00
-7354,14	141,00
-7335,78	236,00
-7317,46	365,00
-7299,18	353,00
-7280,92	378,00
-7262,71	443,00
-7244,52	449,00
-7226,38	523,00
-7208,26	471,00
-7190,18	397,00
-7172,14	343,00
-7154,12	374,00
-7136,15	489,00
-7118,20	441,00
-7100,29	559,00
-7082,41	519,00
-7064,57	491,00
-7046,76	434,00
-7028,98	373,00
-7011,24	215,00
-6993,53	313,00
-6975,85	332,00
-6958,20	263,00
-6940,59	181,00
-6923,01	330,00
-6905,46	398,00
-6887,94	214,00
-6870,46	2939,00
-6853,01	494,00
-6835,59	430,00
-6818,21	322,00
-6800,85	363,00
-6783,53	223,00
-6766,24	144,00
-6748,98	111,00
-6731,76	222,00
-6714,56	70,00
-6697,40	202,00
-6680,26	71,00
-6663,16	233,00
-6646,09	319,00
-6629,05	311,00
-6612,05	272,00
-6595,07	268,00
-6578,13	236,00
-6561,21	247,00
-6544,33	220,00
-6527,47	150,00
-6510,65	343,00
-6493,86	132,00
-6477,10	84,00
-6460,36	115,00
-6443,66	159,00
-6426,99	51,00
-6410,35	94,00
-6393,74	179,00
-6377,16	231,00
-6360,61	216,00
-6344,09	233,00
-6327,59	184,00
-6311,13	153,00
-6294,70	268,00
-6278,29	253,00
-6261,92	361,00
-6245,58	252,00
-6229,26	346,00
-6212,97	290,00
-6196,72	377,00
-6180,49	213,00
-6164,29	46,00
-6148,12	150,00
-6131,98	118,00
-6115,86	119,00
-6099,78	-57,00
-6083,72	9,00
-6067,69	-43,00
-6051,69	187,00
-6035,72	63,00
-6019,78	141,00
-6003,87	145,00
-5987,98	178,00
-5972,12	297,00
-5956,29	238,00
-5940,49	207,00
-5924,71	178,00
-5908,96	39,00
-5893,24	93,00
-5877,55	93,00
-5861,89	47,00
-5846,25	83,00
-5830,64	99,00
-5815,05	63,00
-5799,50	188,00
-5783,97	151,00
-5768,47	143,00
-5752,99	280,00
-5737,55	202,00
-5722,12	270,00
-5706,73	192,00
-5691,36	180,00
-5676,02	65,00
-5660,71	138,00
-5645,42	116,00
-5630,16	124,00
-5614,92	86,00
-5599,71	220,00
-5584,53	195,00
-5569,37	156,00
-5554,24	224,00
-5539,14	277,00
-5524,06	212,00
-5509,01	57,00
-5493,98	270,00
-5478,98	251,00
-5464,00	83,00
-5449,05	294,00
-5434,13	164,00
-5419,23	80,00
-5404,36	106,00
-5389,51	104,00
-5374,69	195,00
-5359,89	244,00
-5345,12	395,00
-5330,37	257,00
-5315,65	300,00
-5300,95	233,00
-5286,28	178,00
-5271,63	125,00
-5257,01	67,00
-5242,41	90,00
-5227,84	28,00
-5213,29	213,00
-5198,76	140,00
-5184,26	62,00
-5169,79	56,00
-5155,33	180,00
-5140,91	76,00
-5126,51	134,00
-5112,13	206,00
-5097,77	144,00
-5083,44	22,00
-5069,13	87,00
-5054,85	222,00
-5040,59	234,00
-5026,36	214,00
-5012,15	147,00
-4997,96	201,00
-4983,80	227,00
-4969,66	121,00
-4955,54	151,00
-4941,44	100,00
-4927,37	307,00
-4913,33	332,00
-4899,30	362,00
-4885,30	306,00
-4871,33	263,00
-4857,37	172,00
-4843,44	88,00
-4829,53	149,00
-4815,65	315,00
-4801,79	167,00
-4787,95	133,00
-4774,13	144,00
-4760,34	146,00
-4746,56	87,00
-4732,82	253,00
-4719,09	79,00
-4705,38	192,00
-4691,70	245,00
-4678,04	310,00
-4664,41	219,00
-4650,79	165,00
-4637,20	226,00
-4623,63	180,00
-4610,08	141,00
-4596,56	186,00
-4583,05	227,00
-4569,57	274,00
-4556,11	155,00
-4542,67	132,00
-4529,25	202,00
-4515,86	305,00
-4502,49	260,00
-4489,13	256,00
-4475,80	257,00
-4462,49	216,00
-4449,21	371,00
-4435,94	140,00
-4422,70	264,00
-4409,47	262,00
-4396,27	189,00
-4383,09	155,00
-4369,93	204,00
-4356,79	174,00
-4343,67	138,00
-4330,58	205,00
-4317,50	257,00
-4304,45	192,00
-4291,41	144,00
-4278,40	208,00
-4265,41	152,00
-4252,44	226,00
-4239,49	202,00
-4226,55	289,00
-4213,65	215,00
-4200,76	181,00
-4187,89	204,00
-4175,04	240,00
-4162,21	115,00
-4149,40	101,00
-4136,61	182,00
-4123,85	183,00
-4111,10	121,00
-4098,37	62,00
-4085,66	183,00
-4072,98	64,00
-4060,31	182,00
-4047,66	60,00
-4035,04	188,00
-4022,43	97,00
-4009,84	198,00
-3997,27	173,00
-3984,72	193,00
-3972,19	119,00
-3959,69	148,00
-3947,20	63,00
-3934,73	151,00
-3922,27	120,00
-3909,84	92,00
-3897,43	247,00
-3885,04	231,00
-3872,67	158,00
-3860,31	129,00
-3847,98	114,00
-3835,66	135,00
-3823,36	99,00
-3811,09	56,00
-3798,83	199,00
-3786,59	124,00
-3774,37	58,00
-3762,17	235,00
-3749,98	61,00
-3737,82	194,00
-3725,67	173,00
-3713,55	106,00
-3701,44	154,00
-3689,35	89,00
-3677,28	206,00
-3665,22	186,00
-3653,19	51,00
-3641,17	123,00
-3629,18	141,00
-3617,20	78,00
-3605,24	324,00
-3593,30	84,00
-3581,37	200,00
-3569,47	162,00
-3557,58	63,00
-3545,71	65,00
-3533,86	226,00
-3522,02	146,00
-3510,21	55,00
-3498,41	127,00
-3486,63	36,00
-3474,87	153,00
-3463,12	153,00
-3451,40	213,00
-3439,69	194,00
-3428,00	214,00
-3416,33	146,00
-3404,67	150,00
-3393,03	159,00
-3381,41	59,00
-3369,81	134,00
-3358,22	91,00
-3346,66	273,00
-3335,10	129,00
-3323,57	231,00
-3312,06	174,00
-3300,56	115,00
-3289,08	244,00
-3277,61	98,00
-3266,16	-19,00
-3254,73	155,00
-3243,32	180,00
-3231,92	49,00
-3220,55	125,00
-3209,18	256,00
-3197,84	79,00
-3186,51	46,00
-3175,20	122,00
-3163,90	169,00
-3152,63	85,00
-3141,36	151,00
-3130,12	168,00
-3118,89	115,00
-3107,68	113,00
-3096,49	120,00
-3085,31	187,00
-3074,15	94,00
-3063,00	135,00
-3051,87	149,00
-3040,76	175,00
-3029,67	104,00
-3018,59	116,00
-3007,52	193,00
-2996,48	61,00
-2985,44	74,00
-2974,43	184,00
-2963,43	46,00
-2952,45	70,00
-2941,48	251,00
-2930,53	107,00
-2919,60	255,00
-2908,68	128,00
-2897,78	161,00
-2886,89	125,00
-2876,02	71,00
-2865,17	88,00
-2854,33	236,00
-2843,50	118,00
-2832,70	212,00
-2821,90	167,00
-2811,13	51,00
-2800,37	170,00
-2789,62	135,00
-2778,89	254,00
-2768,18	219,00
-2757,48	183,00
-2746,80	175,00
-2736,13	66,00
-2725,48	168,00
-2714,84	17,00
-2704,22	96,00
-2693,61	106,00
-2683,02	99,00
-2672,45	199,00
-2661,89	61,00
-2651,34	165,00
-2640,81	142,00
-2630,30	187,00
-2619,80	165,00
-2609,31	45,00
-2598,84	152,00
-2588,39	164,00
-2577,95	203,00
-2567,52	151,00
-2557,11	9,00
-2546,71	208,00
-2536,33	223,00
-2525,97	71,00
-2515,62	157,00
-2505,28	155,00
-2494,96	45,00
-2484,65	95,00
-2474,36	271,00
-2464,08	299,00
-2453,82	184,00
-2443,57	137,00
-2433,33	159,00
-2423,11	113,00
-2412,91	161,00
-2402,72	92,00
-2392,54	126,00
-2382,38	262,00
-2372,23	103,00
-2362,09	3015,00
-2351,97	88,00
-2341,87	262,00
-2331,78	112,00
-2321,70	207,00
-2311,64	189,00
-2301,59	268,00
-2291,55	216,00
-2281,53	97,00
-2271,53	157,00
-2261,53	79,00
-2251,55	152,00
-2241,59	135,00
-2231,64	219,00
-2221,70	102,00
-2211,78	145,00
-2201,87	63,00
-2191,97	232,00
-2182,09	194,00
-2172,22	148,00
-2162,37	23,00
-2152,53	192,00
-2142,70	46,00
-2132,89	123,00
-2123,09	44,00
-2113,30	216,00
-2103,53	123,00
-2093,77	23,00
-2084,02	139,00
-2074,29	149,00
-2064,57	116,00
-2054,86	158,00
-2045,17	69,00
-2035,49	172,00
-2025,82	120,00
-2016,17	203,00
-2006,53	158,00
-1996,91	157,00
-1987,29	113,00
-1977,69	221,00
-1968,11	221,00
-1958,53	108,00
-1948,97	264,00
-1939,42	128,00
-1929,89	56,00
-1920,37	164,00
-1910,86	175,00
-1901,36	117,00
-1891,88	99,00
-1882,41	174,00
-1872,95	198,00
-1863,51	244,00
-1854,08	99,00
-1844,66	262,00
-1835,26	69,00
-1825,86	169,00
-1816,48	192,00
-1807,11	127,00
-1797,76	55,00
-1788,42	211,00
-1779,09	100,00
-1769,77	239,00
-1760,47	170,00
-1751,17	134,00
-1741,89	84,00
-1732,63	115,00
-1723,37	134,00
-1714,13	128,00
-1704,90	160,00
-1695,68	149,00
-1686,48	149,00
-1677,29	120,00
-1668,11	155,00
-1658,94	201,00
-1649,78	170,00
-1640,64	41,00
-1631,51	228,00
-1622,39	99,00
-1613,28	136,00
-1604,19	191,00
-1595,10	264,00
-1586,03	120,00
-1576,97	235,00
-1567,93	137,00
-1558,89	137,00
-1549,87	88,00
-1540,86	106,00
-1531,86	142,00
-1522,87	107,00
-1513,90	13,00
-1504,93	168,00
-1495,98	99,00
-1487,04	147,00
-1478,12	345,00
-1469,20	56,00
-1460,30	162,00
-1451,40	175,00
-1442,52	178,00
-1433,65	96,00
-1424,80	178,00
-1415,95	131,00
-1407,12	322,00
-1398,30	50,00
-1389,48	81,00
-1380,69	91,00
-1371,90	120,00
-1363,12	118,00
-1354,36	185,00
-1345,60	93,00
-1336,86	191,00
-1328,13	142,00
-1319,41	173,00
-1310,70	153,00
-1302,01	89,00
-1293,32	109,00
-1284,65	137,00
-1275,99	85,00
-1267,33	173,00
-1258,69	291,00
-1250,06	134,00
-1241,45	263,00
-1232,84	198,00
-1224,25	130,00
-1215,66	224,00
-1207,09	122,00
-1198,53	237,00
-1189,97	83,00
-1181,43	180,00
-1172,91	14,00
-1164,39	146,00
-1155,88	125,00
-1147,38	184,00
-1138,90	144,00
-1130,43	45,00
-1121,96	214,00
-1113,51	158,00
-1105,07	141,00
-1096,64	140,00
-1088,22	177,00
-1079,81	141,00
-1071,41	131,00
-1063,02	164,00
-1054,65	223,00
-1046,28	193,00
-1037,92	120,00
-1029,58	115,00
-1021,24	138,00
-1012,92	191,00
-1004,61	174,00
-996,30	308,00
-988,01	197,00
-979,73	176,00
-971,46	49,00
-963,20	97,00
-954,95	182,00
-946,71	281,00
-938,48	17,00
-930,26	121,00
-922,06	95,00
-913,86	199,00
-905,67	163,00
-897,49	104,00
-889,33	158,00
-881,17	141,00
-873,02	192,00
-864,89	39,00
-856,76	89,00
-848,65	253,00
-840,54	161,00
-832,45	184,00
-824,36	189,00
-816,29	173,00
-808,22	55,00
-800,17	199,00
-792,12	225,00
-784,09	244,00
-776,06	107,00
-768,05	144,00
-760,04	161,00
-752,05	157,00
-744,07	153,00
-736,09	98,00
-728,13	275,00
-720,17	90,00
-712,23	93,00
-704,29	153,00
-696,37	177,00
-688,45	145,00
-680,55	144,00
-672,65	159,00
-664,77	199,00
-656,89	143,00
-649,03	87,00
-641,17	106,00
-633,32	332,00
-625,49	156,00
-617,66	133,00
-609,84	77,00
-602,03	152,00
-594,23	114,00
-586,45	252,00
-578,67	141,00
-570,90	159,00
-563,14	153,00
-555,39	53,00
-547,65	102,00
-539,91	93,00
-532,19	214,00
-524,48	206,00
-516,78	155,00
-509,08	132,00
-501,40	85,00
-493,72	204,00
-486,06	152,00
-478,40	126,00
-470,76	277,00
-463,12	112,00
-455,49	191,00
-447,87	171,00
-440,26	121,00
-432,66	229,00
-425,07	294,00
-417,49	220,00
-409,92	99,00
-402,35	185,00
-394,80	210,00
-387,25	150,00
-379,72	264,00
-372,19	183,00
-364,67	271,00
-357,17	99,00
-349,67	222,00
-342,18	300,00
-334,69	244,00
-327,22	156,00
-319,76	250,00
-312,30	198,00
-304,86	191,00
-297,42	316,00
-290,00	295,00
-282,58	270,00
-275,17	274,00
-267,77	226,00
-260,37	361,00
-252,99	139,00
-245,62	354,00
-238,25	206,00
-230,90	316,00
-223,55	339,00
-216,21	363,00
-208,88	448,00
-201,56	426,00
-194,25	392,00
-186,94	548,00
-179,65	495,00
-172,36	423,00
-165,08	518,00
-157,81	642,00
-150,55	654,00
-143,30	842,00
-136,06	734,00
-128,82	874,00
-121,60	1103,00
-114,38	1132,00
-107,17	1251,00
-99,97	1306,00
-92,78	1497,00
-85,60	1623,00
-78,42	2004,00
-71,25	2354,00
-64,10	2590,00
-56,95	2946,00
-49,81	3517,00
-42,67	4383,00
-35,55	5359,00
-28,43	7124,00
-21,33	11673,00
-14,23	36148,00
-7,14	56043,00
-0,05	55763,00
7,02	55513,00
14,09	55717,00
21,14	36394,00
28,19	15711,00
35,23	9754,00
42,27	7175,00
49,29	5918,00
56,31	5015,00
63,32	4112,00
70,32	3430,00
77,31	2874,00
84,29	2531,00
91,27	2157,00
98,23	2081,00
105,19	1899,00
112,14	1693,00
119,09	2124,00
126,02	2837,00
132,95	2981,00
139,87	2937,00
146,78	2727,00
153,68	2680,00
160,58	2603,00
167,46	2617,00
174,34	2535,00
181,21	2407,00
188,08	2477,00
194,93	2424,00
201,78	2441,00
208,62	2401,00
215,45	2382,00
222,27	2347,00
229,09	2334,00
235,90	2259,00
242,70	2188,00
249,49	2273,00
256,27	2158,00
263,05	2195,00
269,82	2146,00
276,58	2079,00
283,33	2051,00
290,08	2066,00
296,82	2079,00
303,55	2030,00
310,27	1946,00
316,98	1871,00
323,69	1818,00
330,39	1886,00
337,08	1954,00
343,76	1888,00
350,44	1926,00
357,11	1953,00
363,77	1848,00
370,42	1842,00
377,07	1786,00
383,71	1826,00
390,34	1792,00
396,96	1828,00
403,58	1786,00
410,19	1812,00
416,79	1844,00
423,38	1977,00
429,97	1750,00
436,55	1635,00
443,12	1703,00
449,68	1688,00
456,24	1663,00
462,79	1609,00
469,33	1577,00
475,86	1587,00
482,39	1673,00
488,91	1583,00
495,42	1573,00
501,93	1530,00
508,42	1451,00
514,91	1515,00
521,40	1535,00
527,87	1413,00
534,34	1429,00
540,80	1365,00
547,25	1372,00
553,70	1440,00
560,14	1398,00
566,57	1437,00
573,00	1371,00
579,41	1370,00
585,83	1487,00
592,23	1424,00
598,62	1228,00
605,01	1405,00
611,40	1448,00
617,77	1398,00
624,14	1348,00
630,50	1336,00
636,85	1377,00
643,20	1318,00
649,54	1316,00
655,87	1404,00
662,20	1361,00
668,52	1237,00
674,83	1463,00
681,13	1362,00
687,43	1280,00
693,72	1209,00
700,00	1235,00
706,28	1244,00
712,55	1314,00
718,81	1290,00
725,07	1310,00
731,32	1324,00
737,56	1271,00
743,79	1337,00
750,02	1273,00
756,24	1350,00
762,46	1335,00
768,67	1284,00
774,87	1076,00
781,06	1388,00
787,25	1246,00
793,43	1334,00
799,60	1276,00
805,77	1294,00
811,93	1195,00
818,08	1240,00
824,23	1405,00
830,37	1344,00
836,50	1226,00
842,63	1323,00
848,75	1315,00
854,87	1268,00
860,97	1311,00
867,07	1341,00
873,17	1203,00
879,25	1170,00
885,33	1376,00
891,41	1344,00
897,47	1186,00
903,53	1207,00
909,59	1115,00
915,63	1332,00
921,67	1145,00
927,71	1264,00
933,74	1165,00
939,76	1149,00
945,77	1159,00
951,78	1167,00
957,78	1060,00
963,78	1196,00
969,77	1166,00
975,75	1180,00
981,72	1160,00
987,69	1486,00
993,66	1157,00
999,61	1131,00
1005,56	1127,00
1011,51	1212,00
1017,44	1117,00
1023,37	1051,00
1029,30	1147,00
1035,22	1183,00
1041,13	1062,00
1047,03	1163,00
1052,93	1253,00
1058,83	1499,00
1064,71	1745,00
1070,59	1556,00
1076,47	1332,00
1082,33	1205,00
1088,20	1223,00
1094,05	1047,00
1099,90	1109,00
1105,74	1087,00
1111,58	1192,00
1117,41	1188,00
1123,23	1281,00
1129,05	1596,00
1134,86	1512,00
1140,67	1212,00
1146,47	1068,00
1152,26	1168,00
1158,05	1035,00
1163,83	1071,00
1169,60	1071,00
1175,37	988,00
1181,13	1042,00
1186,89	1078,00
1192,64	1049,00
1198,38	1045,00
1204,12	1017,00
1209,85	919,00
1215,58	896,00
1221,30	1033,00
1227,02	987,00
1232,72	1096,00
1238,43	1073,00
1244,12	1038,00
1249,81	1012,00
1255,50	1175,00
1261,17	1071,00
1266,85	1101,00
1272,51	1197,00
1278,17	1100,00
1283,83	1331,00
1289,47	1563,00
1295,12	1952,00
1300,75	1766,00
1306,38	1568,00
1312,01	1368,00
1317,63	1183,00
1323,24	1290,00
1328,85	1211,00
1334,45	1270,00
1340,04	1153,00
1345,63	1202,00
1351,22	1193,00
1356,80	1178,00
1362,37	1368,00
1367,93	1322,00
1373,49	1306,00
1379,05	1430,00
1384,60	1121,00
1390,14	1283,00
1395,68	1320,00
1401,21	1303,00
1406,74	1416,00
1412,26	1295,00
1417,77	1513,00
1423,28	1606,00
1428,78	1735,00
1434,28	1908,00
1439,77	2092,00
1445,26	2055,00
1450,74	2032,00
1456,22	1859,00
1461,68	1820,00
1467,15	1659,00
1472,61	1578,00
1478,06	1407,00
1483,51	1282,00
1488,95	1232,00
1494,38	1248,00
1499,81	1176,00
1505,24	1112,00
1510,65	1096,00
1516,07	997,00
1521,48	1032,00
1526,88	995,00
1532,27	1000,00
1537,67	985,00
1543,05	1163,00
1548,43	1029,00
1553,81	1053,00
1559,18	856,00
1564,54	976,00
1569,90	1063,00
1575,25	896,00
1580,60	991,00
1585,94	1010,00
1591,28	963,00
1596,61	979,00
1601,93	1053,00
1607,25	920,00
1612,57	919,00
1617,88	970,00
1623,18	1027,00
1628,48	873,00
1633,77	858,00
1639,06	1137,00
1644,34	816,00
1649,62	878,00
1654,89	957,00
1660,16	783,00
1665,42	910,00
1670,67	835,00
1675,92	894,00
1681,17	840,00
1686,41	873,00
1691,64	870,00
1696,87	892,00
1702,10	702,00
1707,32	897,00
1712,53	840,00
1717,74	717,00
1722,94	1037,00
1728,14	777,00
1733,33	788,00
1738,52	806,00
1743,70	748,00
1748,88	864,00
1754,05	682,00
1759,22	858,00
1764,38	909,00
1769,53	893,00
1774,69	675,00
1779,83	761,00
1784,97	843,00
1790,11	789,00
1795,24	810,00
1800,36	623,00
1805,48	778,00
1810,60	751,00
1815,71	645,00
1820,82	676,00
1825,92	617,00
1831,01	647,00
1836,10	755,00
1841,19	681,00
1846,26	591,00
1851,34	516,00
1856,41	721,00
1861,47	613,00
1866,53	577,00
1871,59	607,00
1876,64	585,00
1881,68	654,00
1886,72	655,00
1891,76	654,00
1896,79	714,00
1901,81	587,00
1906,83	547,00
1911,85	631,00
1916,86	624,00
1921,86	621,00
1926,86	618,00
1931,86	525,00
1936,85	521,00
1941,83	603,00
1946,81	491,00
1951,79	645,00
1956,76	644,00
1961,72	540,00
1966,68	594,00
1971,64	519,00
1976,59	557,00
1981,54	530,00
1986,48	658,00
1991,42	565,00
1996,35	692,00
2001,27	484,00
2006,20	453,00
2011,11	552,00
2016,03	546,00
2020,93	498,00
2025,84	440,00
2030,73	556,00
2035,63	461,00
2040,52	511,00
2045,40	557,00
2050,28	478,00
2055,15	475,00
2060,02	426,00
2064,89	601,00
2069,75	396,00
2074,60	504,00
2079,46	479,00
2084,30	411,00
2089,14	450,00
2093,98	453,00
2098,81	545,00
2103,64	642,00
2108,46	537,00
2113,28	557,00
2118,09	432,00
2122,90	497,00
2127,70	492,00
2132,50	583,00
2137,30	321,00
2142,09	422,00
2146,87	458,00
2151,66	398,00
2156,43	335,00
2161,20	564,00
2165,97	471,00
2170,73	516,00
2175,49	463,00
2180,24	552,00
2184,99	560,00
2189,74	512,00
2194,48	403,00
2199,21	549,00
2203,94	362,00
2208,67	487,00
2213,39	398,00
2218,11	474,00
2222,82	492,00
2227,53	423,00
2232,23	550,00
2236,93	477,00
2241,63	378,00
2246,32	498,00
2251,00	347,00
2255,68	458,00
2260,36	502,00
2265,03	450,00
2269,70	498,00
2274,36	445,00
2279,02	397,00
2283,68	227,00
2288,33	417,00
2292,97	553,00
2297,61	423,00
2302,25	334,00
2306,88	483,00
2311,51	334,00
2316,14	390,00
2320,75	389,00
2325,37	433,00
2329,98	451,00
2334,59	394,00
2339,19	382,00
2343,79	226,00
2348,38	422,00
2352,97	299,00
2357,55	394,00
2362,13	469,00
2366,71	379,00
2371,28	462,00
2375,85	362,00
2380,41	424,00
2384,97	418,00
2389,52	337,00
2394,07	426,00
2398,62	386,00
2403,16	384,00
2407,70	377,00
2412,23	355,00
2416,76	507,00
2421,29	341,00
2425,81	231,00
2430,32	425,00
2434,84	343,00
2439,34	341,00
2443,85	416,00
2448,35	525,00
2452,84	428,00
2457,33	302,00
2461,82	400,00
2466,30	425,00
2470,78	267,00
2475,25	289,00
2479,72	349,00
2484,19	361,00
2488,65	312,00
2493,11	322,00
2497,56	369,00
2502,01	349,00
2506,46	354,00
2510,90	276,00
2515,34	366,00
2519,77	354,00
2524,20	287,00
2528,62	341,00
2533,04	304,00
2537,46	397,00
2541,87	322,00
2546,28	391,00
2550,68	344,00
2555,08	330,00
2559,48	536,00
2563,87	489,00
2568,26	385,00
2572,64	290,00
2577,02	398,00
2581,40	437,00
2585,77	245,00
2590,14	395,00
2594,50	360,00
2598,86	351,00
2603,22	262,00
2607,57	325,00
2611,92	205,00
2616,26	213,00
2620,60	341,00
2624,94	338,00
2629,27	284,00
2633,60	373,00
2637,92	424,00
2642,24	317,00
2646,56	252,00
2650,87	389,00
2655,18	461,00
2659,48	282,00
2663,78	371,00
2668,08	351,00
2672,37	365,00
2676,66	419,00
2680,95	418,00
2685,23	432,00
2689,50	391,00
2693,78	294,00
2698,05	426,00
2702,31	373,00
2706,57	291,00
2710,83	445,00
2715,08	486,00
2719,33	494,00
2723,58	345,00
2727,82	515,00
2732,06	461,00
2736,29	396,00
2740,53	362,00
2744,75	361,00
2748,97	400,00
2753,19	454,00
2757,41	320,00
2761,62	453,00
2765,83	412,00
2770,03	305,00
2774,23	192,00
2778,43	331,00
2782,62	382,00
2786,81	372,00
2791,00	397,00
2795,18	452,00
2799,35	469,00
2803,53	407,00
2807,70	483,00
2811,86	477,00
2816,03	453,00
2820,19	502,00
2824,34	531,00
2828,49	609,00
2832,64	652,00
2836,78	860,00
2840,92	907,00
2845,06	1217,00
2849,19	1292,00
2853,32	1508,00
2857,45	1396,00
2861,57	1288,00
2865,69	1332,00
2869,80	1358,00
2873,91	1323,00
2878,02	1395,00
2882,12	1542,00
2886,22	1589,00
2890,32	1381,00
2894,41	1403,00
2898,50	1143,00
2902,58	1286,00
2906,67	1263,00
2910,74	1162,00
2914,82	924,00
2918,89	900,00
2922,96	969,00
2927,02	864,00
2931,08	898,00
2935,13	777,00
2939,19	844,00
2943,24	636,00
2947,28	649,00
2951,32	531,00
2955,36	600,00
2959,40	476,00
2963,43	567,00
2967,46	406,00
2971,48	449,00
2975,50	428,00
2979,52	459,00
2983,53	378,00
2987,54	322,00
2991,55	303,00
2995,55	292,00
2999,55	243,00
3003,54	353,00
3007,54	284,00
3011,53	274,00
3015,51	211,00
3019,49	431,00
3023,47	235,00
3027,45	234,00
3031,42	311,00
3035,39	250,00
3039,35	192,00
3043,31	279,00
3047,27	294,00
3051,22	204,00
3055,17	225,00
3059,12	247,00
3063,06	224,00
3067,00	325,00
3070,94	222,00
3074,87	245,00
3078,80	162,00
3082,73	362,00
3086,65	205,00
3090,57	184,00
3094,49	300,00
3098,40	120,00
3102,31	176,00
3106,22	241,00
3110,12	207,00
3114,02	176,00
3117,92	137,00
3121,81	337,00
3125,70	213,00
3129,58	176,00
3133,47	107,00
3137,34	156,00
3141,22	171,00
3145,09	211,00
3148,96	275,00
3152,83	291,00
3156,69	90,00
3160,55	229,00
3164,40	233,00
3168,26	343,00
3172,10	263,00
3175,95	211,00
3179,79	288,00
3183,63	233,00
3187,47	278,00
3191,30	151,00
3195,13	168,00
3198,95	194,00
3202,78	278,00
3206,60	291,00
3210,41	230,00
3214,23	226,00
3218,03	285,00
3221,84	174,00
3225,64	194,00
3229,44	157,00
3233,24	171,00
3237,03	221,00
3240,82	266,00
3244,61	196,00
3248,39	259,00
3252,17	183,00
3255,95	101,00
3259,72	301,00
3263,49	168,00
3267,26	241,00
3271,03	225,00
3274,79	221,00
3278,54	220,00
3282,30	151,00
3286,05	262,00
3289,80	158,00
3293,54	289,00
3297,29	184,00
3301,02	297,00
3304,76	236,00
3308,49	198,00
3312,22	258,00
3315,95	231,00
3319,67	188,00
3323,39	295,00
3327,10	226,00
3330,82	235,00
3334,53	190,00
3338,24	195,00
3341,94	189,00
3345,64	221,00
3349,34	386,00
3353,03	234,00
3356,72	217,00
3360,41	219,00
3364,10	216,00
3367,78	177,00
3371,46	186,00
3375,13	172,00
3378,81	378,00
3382,48	255,00
3386,14	253,00
3389,81	315,00
3393,47	206,00
3397,12	254,00
3400,78	207,00
3404,43	259,00
3408,08	216,00
3411,72	192,00
3415,36	220,00
3419,00	233,00
3422,64	202,00
3426,27	164,00
3429,90	292,00
3433,53	198,00
3437,15	65,00
3440,77	112,00
3444,39	206,00
3448,00	202,00
3451,62	136,00
3455,22	220,00
3458,83	183,00
3462,43	137,00
3466,03	137,00
3469,63	145,00
3473,22	205,00
3476,81	251,00
3480,40	136,00
3483,99	230,00
3487,57	225,00
3491,15	213,00
3494,72	195,00
3498,29	276,00
3501,86	172,00
3505,43	105,00
3508,99	182,00
3512,56	149,00
3516,11	236,00
3519,67	80,00
3523,22	142,00
3526,77	111,00
3530,32	126,00
3533,86	243,00
3537,40	123,00
3540,94	105,00
3544,47	120,00
3548,00	124,00
3551,53	147,00
3555,06	94,00
3558,58	175,00
3562,10	126,00
3565,62	182,00
3569,13	58,00
3572,64	162,00
3576,15	102,00
3579,66	95,00
3583,16	137,00
3586,66	168,00
3590,16	122,00
3593,65	102,00
3597,14	122,00
3600,63	119,00
3604,11	77,00
3607,60	103,00
3611,08	115,00
3614,55	245,00
3618,03	124,00
3621,50	141,00
3624,97	98,00
3628,43	125,00
3631,90	219,00
3635,36	128,00
3638,81	180,00
3642,27	176,00
3645,72	104,00
3649,17	157,00
3652,61	139,00
3656,06	96,00
3659,50	29,00
3662,93	60,00
3666,37	172,00
3669,80	190,00
3673,23	270,00
3676,65	147,00
3680,08	65,00
3683,50	126,00
3686,92	119,00
3690,33	100,00
3693,74	140,00
3697,15	161,00
3700,56	89,00
3703,96	165,00
3707,36	29,00
3710,76	113,00
3714,16	199,00
3717,55	193,00
3720,94	191,00
3724,33	211,00
3727,71	75,00
3731,10	116,00
3734,48	216,00
3737,85	57,00
3741,23	105,00
3744,60	172,00
3747,97	187,00
3751,33	124,00
3754,69	164,00
3758,05	67,00
3761,41	152,00
3764,77	197,00
3768,12	37,00
3771,47	194,00
3774,82	157,00
3778,16	0,00
3781,50	2,00
3784,84	2,00
3788,18	3,00
>>>>>End Processed Spectral Data<<<<<
