SpectraSuite Data File
++++++++++++++++++++++++++++++++++++
Date: Wed Feb 11 17:05:32 ICT 2026
User: Administrator
Dark Spectrum Present: Yes
Reference Spectrum Present: No
Number of Sampled Component Spectra: 1
Spectrometers: MAYP113682
Integration Time (usec): 3000000 (MAYP113682)
Spectra Averaged: 1 (MAYP113682)
Boxcar Smoothing: 0 (MAYP113682)
Correct for Electrical Dark: No (MAYP113682)
Strobe/Lamp Enabled: No (MAYP113682)
Correct for Detector Non-linearity: No (MAYP113682)
Correct for Stray Light: No (MAYP113682)
Number of Pixels in Processed Spectrum: 2068
>>>>>Begin Processed Spectral Data<<<<<
-37534,58	12,00
-37414,56	1,00
-37295,11	0,00
-37176,24	4,00
-37057,95	82,00
-36940,22	101,00
-36823,05	40,00
-36706,45	128,00
-36590,40	167,00
-36474,90	21,00
-36359,95	-6,00
-36245,55	63,00
-36131,68	94,00
-36018,35	77,00
-35905,55	126,00
-35793,29	150,00
-35681,54	85,00
-35570,32	116,00
-35459,62	100,00
-35349,43	40,00
-35239,75	172,00
-35130,58	63,00
-35021,91	52,00
-34913,74	30,00
-34806,07	22,00
-34698,89	-21,00
-34592,20	143,00
-34486,00	94,00
-34380,28	191,00
-34275,04	83,00
-34170,27	95,00
-34065,98	27,00
-33962,16	-33,00
-33858,81	162,00
-33755,92	124,00
-33653,49	-27,00
-33551,52	63,00
-33450,01	-62,00
-33348,94	77,00
-33248,33	4,00
-33148,16	84,00
-33048,43	37,00
-32949,14	-31,00
-32850,29	13,00
-32751,87	132,00
-32653,89	80,00
-32556,33	10,00
-32459,20	98,00
-32362,49	43,00
-32266,19	-51,00
-32170,32	-5,00
-32074,86	49,00
-31979,82	-5,00
-31885,18	38,00
-31790,95	80,00
-31697,12	77,00
-31603,69	87,00
-31510,67	63,00
-31418,04	109,00
-31325,80	47,00
-31233,95	121,00
-31142,49	32,00
-31051,42	80,00
-30960,73	32,00
-30870,43	-28,00
-30780,50	60,00
-30690,95	75,00
-30601,77	119,00
-30512,97	14,00
-30424,53	109,00
-30336,46	39,00
-30248,76	69,00
-30161,42	-22,00
-30074,44	94,00
-29987,81	93,00
-29901,55	68,00
-29815,63	94,00
-29730,07	23,00
-29644,86	43,00
-29560,00	42,00
-29475,48	20,00
-29391,30	12,00
-29307,47	20,00
-29223,97	59,00
-29140,81	50,00
-29057,99	127,00
-28975,50	80,00
-28893,34	90,00
-28811,51	68,00
-28730,00	130,00
-28648,82	160,00
-28567,97	137,00
-28487,43	54,00
-28407,21	-33,00
-28327,32	15,00
-28247,73	148,00
-28168,46	214,00
-28089,50	-6,00
-28010,85	0,00
-27932,51	35,00
-27854,48	35,00
-27776,75	77,00
-27699,32	20,00
-27622,19	109,00
-27545,37	78,00
-27468,84	22,00
-27392,60	137,00
-27316,66	-29,00
-27241,01	91,00
-27165,66	56,00
-27090,59	17,00
-27015,81	72,00
-26941,31	85,00
-26867,10	77,00
-26793,17	28,00
-26719,52	42,00
-26646,15	-45,00
-26573,06	35,00
-26500,24	83,00
-26427,70	-53,00
-26355,43	49,00
-26283,43	25,00
-26211,71	11,00
-26140,25	117,00
-26069,06	148,00
-25998,13	96,00
-25927,46	14,00
-25857,06	5,00
-25786,92	29,00
-25717,04	64,00
-25647,42	62,00
-25578,05	129,00
-25508,94	-2,00
-25440,09	62,00
-25371,48	-82,00
-25303,13	122,00
-25235,02	138,00
-25167,17	88,00
-25099,56	63,00
-25032,19	34,00
-24965,07	16,00
-24898,20	56,00
-24831,56	177,00
-24765,17	54,00
-24699,01	91,00
-24633,10	129,00
-24567,41	62,00
-24501,97	-96,00
-24436,75	51,00
-24371,77	69,00
-24307,03	88,00
-24242,51	45,00
-24178,22	-28,00
-24114,16	22,00
-24050,32	141,00
-23986,71	41,00
-23923,32	31,00
-23860,16	65,00
-23797,22	62,00
-23734,50	30,00
-23672,00	106,00
-23609,71	-8,00
-23547,65	42,00
-23485,80	228,00
-23424,16	57,00
-23362,74	127,00
-23301,53	-2,00
-23240,54	88,00
-23179,75	34,00
-23119,17	86,00
-23058,80	27,00
-22998,64	118,00
-22938,68	43,00
-22878,93	74,00
-22819,39	92,00
-22760,04	51,00
-22700,90	94,00
-22641,96	42,00
-22583,22	2,00
-22524,68	-59,00
-22466,33	-26,00
-22408,19	130,00
-22350,23	-4,00
-22292,48	102,00
-22234,92	144,00
-22177,55	-69,00
-22120,37	68,00
-22063,38	10,00
-22006,58	34,00
-21949,98	44,00
-21893,56	83,00
-21837,33	53,00
-21781,28	87,00
-21725,42	99,00
-21669,74	143,00
-21614,25	67,00
-21558,94	3,00
-21503,81	137,00
-21448,86	-54,00
-21394,10	107,00
-21339,51	47,00
-21285,10	90,00
-21230,86	19,00
-21176,81	39,00
-21122,93	133,00
-21069,22	67,00
-21015,69	118,00
-20962,33	125,00
-20909,14	21,00
-20856,13	122,00
-20803,28	109,00
-20750,61	95,00
-20698,10	42,00
-20645,76	151,00
-20593,59	119,00
-20541,59	82,00
-20489,75	151,00
-20438,07	19,00
-20386,56	149,00
-20335,22	64,00
-20284,03	138,00
-20233,01	145,00
-20182,15	13,00
-20131,45	95,00
-20080,91	13,00
-20030,52	58,00
-19980,30	34,00
-19930,23	94,00
-19880,32	118,00
-19830,56	90,00
-19780,96	103,00
-19731,52	137,00
-19682,23	135,00
-19633,09	-59,00
-19584,10	88,00
-19535,26	34,00
-19486,58	69,00
-19438,04	107,00
-19389,66	1,00
-19341,42	149,00
-19293,33	36,00
-19245,39	20,00
-19197,60	52,00
-19149,95	-18,00
-19102,45	116,00
-19055,09	55,00
-19007,87	17,00
-18960,80	213,00
-18913,87	133,00
-18867,09	67,00
-18820,44	62,00
-18773,94	116,00
-18727,57	-6,00
-18681,35	90,00
-18635,26	114,00
-18589,31	68,00
-18543,50	52,00
-18497,83	45,00
-18452,29	53,00
-18406,89	30,00
-18361,63	1,00
-18316,50	93,00
-18271,50	91,00
-18226,63	7,00
-18181,90	32,00
-18137,30	215,00
-18092,84	45,00
-18048,50	133,00
-18004,29	138,00
-17960,22	55,00
-17916,27	88,00
-17872,45	65,00
-17828,76	32,00
-17785,20	165,00
-17741,77	-1,00
-17698,46	76,00
-17655,28	-100,00
-17612,22	137,00
-17569,29	88,00
-17526,48	123,00
-17483,79	106,00
-17441,23	-33,00
-17398,79	41,00
-17356,48	109,00
-17314,28	140,00
-17272,21	179,00
-17230,26	-91,00
-17188,42	35,00
-17146,71	-32,00
-17105,12	13,00
-17063,64	66,00
-17022,28	16,00
-16981,04	142,00
-16939,92	42,00
-16898,91	38,00
-16858,02	85,00
-16817,25	-6,00
-16776,59	116,00
-16736,04	28,00
-16695,61	129,00
-16655,29	50,00
-16615,09	25,00
-16574,99	134,00
-16535,01	-5,00
-16495,15	49,00
-16455,39	167,00
-16415,74	-6,00
-16376,21	38,00
-16336,78	88,00
-16297,46	111,00
-16258,26	104,00
-16219,16	88,00
-16180,17	19,00
-16141,28	-36,00
-16102,51	69,00
-16063,84	109,00
-16025,27	87,00
-15986,82	110,00
-15948,46	111,00
-15910,22	96,00
-15872,07	112,00
-15834,04	-2,00
-15796,10	158,00
-15758,27	142,00
-15720,54	57,00
-15682,91	77,00
-15645,39	102,00
-15607,97	94,00
-15570,64	49,00
-15533,42	59,00
-15496,30	-88,00
-15459,28	107,00
-15422,36	97,00
-15385,54	62,00
-15348,82	128,00
-15312,19	30,00
-15275,66	35,00
-15239,23	-37,00
-15202,90	51,00
-15166,67	40,00
-15130,53	24,00
-15094,48	121,00
-15058,54	110,00
-15022,68	101,00
-14986,93	126,00
-14951,26	106,00
-14915,69	-7,00
-14880,22	163,00
-14844,84	0,00
-14809,55	76,00
-14774,35	10,00
-14739,25	-37,00
-14704,24	22,00
-14669,32	146,00
-14634,49	22,00
-14599,75	91,00
-14565,10	49,00
-14530,55	-37,00
-14496,08	57,00
-14461,70	130,00
-14427,41	58,00
-14393,21	-17,00
-14359,10	44,00
-14325,07	145,00
-14291,14	60,00
-14257,29	130,00
-14223,52	38,00
-14189,85	52,00
-14156,26	50,00
-14122,76	-5,00
-14089,34	97,00
-14056,01	10,00
-14022,76	54,00
-13989,60	33,00
-13956,52	82,00
-13923,53	73,00
-13890,62	56,00
-13857,79	38,00
-13825,05	15,00
-13792,39	30,00
-13759,81	44,00
-13727,31	44,00
-13694,90	93,00
-13662,57	59,00
-13630,31	60,00
-13598,14	130,00
-13566,05	107,00
-13534,05	78,00
-13502,12	11,00
-13470,27	130,00
-13438,50	109,00
-13406,80	152,00
-13375,19	90,00
-13343,66	101,00
-13312,20	108,00
-13280,83	-17,00
-13249,53	206,00
-13218,30	28,00
-13187,16	141,00
-13156,09	40,00
-13125,10	44,00
-13094,18	26,00
-13063,34	42,00
-13032,58	38,00
-13001,89	49,00
-12971,28	107,00
-12940,74	89,00
-12910,27	99,00
-12879,88	2,00
-12849,57	71,00
-12819,33	-32,00
-12789,16	160,00
-12759,06	57,00
-12729,04	48,00
-12699,09	207,00
-12669,21	27,00
-12639,41	69,00
-12609,68	94,00
-12580,02	88,00
-12550,43	0,00
-12520,91	-2,00
-12491,46	34,00
-12462,08	68,00
-12432,77	-3,00
-12403,54	88,00
-12374,37	148,00
-12345,27	25,00
-12316,24	82,00
-12287,29	138,00
-12258,40	85,00
-12229,57	108,00
-12200,82	190,00
-12172,14	95,00
-12143,52	169,00
-12114,97	76,00
-12086,49	158,00
-12058,07	18,00
-12029,73	77,00
-12001,44	106,00
-11973,23	63,00
-11945,08	-33,00
-11917,00	195,00
-11888,98	69,00
-11861,03	105,00
-11833,15	123,00
-11805,32	8,00
-11777,57	67,00
-11749,88	92,00
-11722,25	-4,00
-11694,69	131,00
-11667,19	43,00
-11639,75	135,00
-11612,38	127,00
-11585,07	-32,00
-11557,83	127,00
-11530,65	-42,00
-11503,53	161,00
-11476,47	123,00
-11449,48	41,00
-11422,54	62,00
-11395,67	80,00
-11368,86	113,00
-11342,11	1,00
-11315,43	94,00
-11288,80	0,00
-11262,23	77,00
-11235,73	-22,00
-11209,28	80,00
-11182,90	85,00
-11156,57	-18,00
-11130,31	44,00
-11104,10	76,00
-11077,96	114,00
-11051,87	12,00
-11025,84	36,00
-10999,87	100,00
-10973,96	9,00
-10948,11	170,00
-10922,31	65,00
-10896,58	134,00
-10870,90	17,00
-10845,28	79,00
-10819,71	82,00
-10794,20	71,00
-10768,75	83,00
-10743,36	-21,00
-10718,02	60,00
-10692,74	153,00
-10667,52	41,00
-10642,35	87,00
-10617,24	35,00
-10592,18	118,00
-10567,18	80,00
-10542,23	176,00
-10517,34	117,00
-10492,51	60,00
-10467,72	44,00
-10443,00	23,00
-10418,32	188,00
-10393,70	135,00
-10369,14	12,00
-10344,63	115,00
-10320,17	182,00
-10295,77	109,00
-10271,42	-4,00
-10247,12	125,00
-10222,88	272,00
-10198,68	185,00
-10174,54	160,00
-10150,46	85,00
-10126,42	100,00
-10102,44	149,00
-10078,51	146,00
-10054,63	94,00
-10030,80	167,00
-10007,03	110,00
-9983,30	144,00
-9959,63	249,00
-9936,01	171,00
-9912,44	75,00
-9888,92	197,00
-9865,44	178,00
-9842,02	219,00
-9818,65	273,00
-9795,33	325,00
-9772,06	220,00
-9748,84	238,00
-9725,67	240,00
-9702,55	221,00
-9679,47	320,00
-9656,45	255,00
-9633,47	207,00
-9610,55	380,00
-9587,67	473,00
-9564,84	357,00
-9542,06	425,00
-9519,32	451,00
-9496,64	502,00
-9474,00	612,00
-9451,41	533,00
-9428,87	515,00
-9406,37	580,00
-9383,92	445,00
-9361,52	533,00
-9339,17	511,00
-9316,86	699,00
-9294,60	671,00
-9272,38	751,00
-9250,21	841,00
-9228,09	1029,00
-9206,01	914,00
-9183,98	926,00
-9162,00	745,00
-9140,06	761,00
-9118,16	781,00
-9096,31	801,00
-9074,51	836,00
-9052,75	844,00
-9031,04	870,00
-9009,37	657,00
-8987,74	675,00
-8966,16	585,00
-8944,63	494,00
-8923,14	517,00
-8901,69	490,00
-8880,29	633,00
-8858,93	680,00
-8837,61	726,00
-8816,34	834,00
-8795,11	896,00
-8773,92	671,00
-8752,78	624,00
-8731,68	610,00
-8710,62	703,00
-8689,61	663,00
-8668,63	680,00
-8647,70	899,00
-8626,82	831,00
-8605,97	699,00
-8585,17	694,00
-8564,41	664,00
-8543,69	608,00
-8523,01	553,00
-8502,37	444,00
-8481,78	693,00
-8461,23	754,00
-8440,71	668,00
-8420,24	843,00
-8399,81	748,00
-8379,42	851,00
-8359,08	653,00
-8338,77	705,00
-8318,50	645,00
-8298,27	684,00
-8278,09	575,00
-8257,94	661,00
-8237,83	776,00
-8217,76	802,00
-8197,74	785,00
-8177,75	773,00
-8157,80	645,00
-8137,89	601,00
-8118,02	635,00
-8098,19	664,00
-8078,40	715,00
-8058,65	706,00
-8038,93	686,00
-8019,26	667,00
-7999,62	555,00
-7980,02	596,00
-7960,46	537,00
-7940,94	545,00
-7921,46	552,00
-7902,01	576,00
-7882,60	448,00
-7863,23	502,00
-7843,90	619,00
-7824,61	542,00
-7805,35	668,00
-7786,13	595,00
-7766,95	541,00
-7747,80	542,00
-7728,69	557,00
-7709,62	584,00
-7690,59	576,00
-7671,59	663,00
-7652,63	770,00
-7633,70	568,00
-7614,81	672,00
-7595,96	592,00
-7577,15	506,00
-7558,37	535,00
-7539,62	493,00
-7520,91	575,00
-7502,24	556,00
-7483,60	681,00
-7465,00	603,00
-7446,44	564,00
-7427,91	488,00
-7409,41	322,00
-7390,95	390,00
-7372,53	305,00
-7354,14	233,00
-7335,78	275,00
-7317,46	300,00
-7299,18	387,00
-7280,92	473,00
-7262,71	561,00
-7244,52	516,00
-7226,38	555,00
-7208,26	575,00
-7190,18	576,00
-7172,14	426,00
-7154,12	497,00
-7136,15	574,00
-7118,20	559,00
-7100,29	611,00
-7082,41	727,00
-7064,57	549,00
-7046,76	461,00
-7028,98	436,00
-7011,24	351,00
-6993,53	426,00
-6975,85	393,00
-6958,20	214,00
-6940,59	239,00
-6923,01	366,00
-6905,46	329,00
-6887,94	346,00
-6870,46	2960,00
-6853,01	567,00
-6835,59	484,00
-6818,21	451,00
-6800,85	301,00
-6783,53	390,00
-6766,24	280,00
-6748,98	148,00
-6731,76	334,00
-6714,56	48,00
-6697,40	157,00
-6680,26	137,00
-6663,16	294,00
-6646,09	298,00
-6629,05	459,00
-6612,05	377,00
-6595,07	450,00
-6578,13	304,00
-6561,21	315,00
-6544,33	297,00
-6527,47	100,00
-6510,65	231,00
-6493,86	202,00
-6477,10	78,00
-6460,36	200,00
-6443,66	248,00
-6426,99	138,00
-6410,35	245,00
-6393,74	210,00
-6377,16	278,00
-6360,61	300,00
-6344,09	367,00
-6327,59	264,00
-6311,13	252,00
-6294,70	336,00
-6278,29	309,00
-6261,92	345,00
-6245,58	335,00
-6229,26	420,00
-6212,97	366,00
-6196,72	356,00
-6180,49	243,00
-6164,29	81,00
-6148,12	95,00
-6131,98	163,00
-6115,86	178,00
-6099,78	-18,00
-6083,72	36,00
-6067,69	-11,00
-6051,69	153,00
-6035,72	84,00
-6019,78	263,00
-6003,87	151,00
-5987,98	58,00
-5972,12	336,00
-5956,29	225,00
-5940,49	246,00
-5924,71	186,00
-5908,96	101,00
-5893,24	85,00
-5877,55	134,00
-5861,89	101,00
-5846,25	37,00
-5830,64	84,00
-5815,05	54,00
-5799,50	185,00
-5783,97	161,00
-5768,47	168,00
-5752,99	326,00
-5737,55	267,00
-5722,12	345,00
-5706,73	309,00
-5691,36	230,00
-5676,02	168,00
-5660,71	49,00
-5645,42	158,00
-5630,16	127,00
-5614,92	197,00
-5599,71	124,00
-5584,53	194,00
-5569,37	217,00
-5554,24	154,00
-5539,14	212,00
-5524,06	257,00
-5509,01	204,00
-5493,98	238,00
-5478,98	269,00
-5464,00	172,00
-5449,05	185,00
-5434,13	153,00
-5419,23	45,00
-5404,36	92,00
-5389,51	111,00
-5374,69	272,00
-5359,89	374,00
-5345,12	238,00
-5330,37	273,00
-5315,65	303,00
-5300,95	267,00
-5286,28	197,00
-5271,63	139,00
-5257,01	156,00
-5242,41	-3,00
-5227,84	126,00
-5213,29	229,00
-5198,76	112,00
-5184,26	114,00
-5169,79	131,00
-5155,33	197,00
-5140,91	72,00
-5126,51	173,00
-5112,13	171,00
-5097,77	126,00
-5083,44	99,00
-5069,13	45,00
-5054,85	138,00
-5040,59	218,00
-5026,36	160,00
-5012,15	246,00
-4997,96	204,00
-4983,80	215,00
-4969,66	114,00
-4955,54	184,00
-4941,44	87,00
-4927,37	225,00
-4913,33	359,00
-4899,30	418,00
-4885,30	390,00
-4871,33	193,00
-4857,37	175,00
-4843,44	135,00
-4829,53	7,00
-4815,65	216,00
-4801,79	160,00
-4787,95	113,00
-4774,13	-2,00
-4760,34	138,00
-4746,56	-56,00
-4732,82	17,00
-4719,09	150,00
-4705,38	215,00
-4691,70	293,00
-4678,04	346,00
-4664,41	168,00
-4650,79	135,00
-4637,20	160,00
-4623,63	81,00
-4610,08	122,00
-4596,56	139,00
-4583,05	165,00
-4569,57	158,00
-4556,11	42,00
-4542,67	97,00
-4529,25	89,00
-4515,86	129,00
-4502,49	258,00
-4489,13	260,00
-4475,80	295,00
-4462,49	182,00
-4449,21	249,00
-4435,94	94,00
-4422,70	189,00
-4409,47	253,00
-4396,27	188,00
-4383,09	146,00
-4369,93	130,00
-4356,79	136,00
-4343,67	111,00
-4330,58	107,00
-4317,50	161,00
-4304,45	225,00
-4291,41	54,00
-4278,40	125,00
-4265,41	124,00
-4252,44	188,00
-4239,49	142,00
-4226,55	182,00
-4213,65	271,00
-4200,76	203,00
-4187,89	100,00
-4175,04	165,00
-4162,21	128,00
-4149,40	-53,00
-4136,61	24,00
-4123,85	100,00
-4111,10	72,00
-4098,37	48,00
-4085,66	58,00
-4072,98	150,00
-4060,31	122,00
-4047,66	-48,00
-4035,04	131,00
-4022,43	49,00
-4009,84	161,00
-3997,27	85,00
-3984,72	70,00
-3972,19	67,00
-3959,69	9,00
-3947,20	111,00
-3934,73	50,00
-3922,27	72,00
-3909,84	24,00
-3897,43	95,00
-3885,04	124,00
-3872,67	56,00
-3860,31	113,00
-3847,98	45,00
-3835,66	101,00
-3823,36	82,00
-3811,09	55,00
-3798,83	63,00
-3786,59	-15,00
-3774,37	-28,00
-3762,17	203,00
-3749,98	46,00
-3737,82	186,00
-3725,67	61,00
-3713,55	98,00
-3701,44	40,00
-3689,35	73,00
-3677,28	94,00
-3665,22	137,00
-3653,19	-44,00
-3641,17	80,00
-3629,18	28,00
-3617,20	37,00
-3605,24	117,00
-3593,30	85,00
-3581,37	27,00
-3569,47	33,00
-3557,58	60,00
-3545,71	52,00
-3533,86	188,00
-3522,02	95,00
-3510,21	-63,00
-3498,41	133,00
-3486,63	-16,00
-3474,87	82,00
-3463,12	114,00
-3451,40	90,00
-3439,69	145,00
-3428,00	100,00
-3416,33	7,00
-3404,67	37,00
-3393,03	-1,00
-3381,41	30,00
-3369,81	154,00
-3358,22	36,00
-3346,66	152,00
-3335,10	174,00
-3323,57	165,00
-3312,06	95,00
-3300,56	112,00
-3289,08	63,00
-3277,61	28,00
-3266,16	-40,00
-3254,73	125,00
-3243,32	76,00
-3231,92	53,00
-3220,55	177,00
-3209,18	140,00
-3197,84	63,00
-3186,51	-51,00
-3175,20	38,00
-3163,90	67,00
-3152,63	20,00
-3141,36	56,00
-3130,12	152,00
-3118,89	40,00
-3107,68	97,00
-3096,49	-7,00
-3085,31	93,00
-3074,15	50,00
-3063,00	95,00
-3051,87	61,00
-3040,76	-16,00
-3029,67	147,00
-3018,59	112,00
-3007,52	32,00
-2996,48	3,00
-2985,44	94,00
-2974,43	119,00
-2963,43	62,00
-2952,45	81,00
-2941,48	136,00
-2930,53	140,00
-2919,60	75,00
-2908,68	-17,00
-2897,78	68,00
-2886,89	-8,00
-2876,02	45,00
-2865,17	0,00
-2854,33	159,00
-2843,50	-6,00
-2832,70	89,00
-2821,90	106,00
-2811,13	50,00
-2800,37	109,00
-2789,62	132,00
-2778,89	110,00
-2768,18	142,00
-2757,48	89,00
-2746,80	116,00
-2736,13	40,00
-2725,48	219,00
-2714,84	-23,00
-2704,22	-21,00
-2693,61	144,00
-2683,02	120,00
-2672,45	77,00
-2661,89	53,00
-2651,34	86,00
-2640,81	18,00
-2630,30	127,00
-2619,80	63,00
-2609,31	48,00
-2598,84	50,00
-2588,39	146,00
-2577,95	111,00
-2567,52	24,00
-2557,11	11,00
-2546,71	53,00
-2536,33	87,00
-2525,97	2,00
-2515,62	158,00
-2505,28	74,00
-2494,96	-11,00
-2484,65	22,00
-2474,36	50,00
-2464,08	154,00
-2453,82	103,00
-2443,57	-26,00
-2433,33	53,00
-2423,11	22,00
-2412,91	169,00
-2402,72	-8,00
-2392,54	114,00
-2382,38	79,00
-2372,23	26,00
-2362,09	-108,00
-2351,97	101,00
-2341,87	180,00
-2331,78	109,00
-2321,70	86,00
-2311,64	44,00
-2301,59	148,00
-2291,55	95,00
-2281,53	-84,00
-2271,53	51,00
-2261,53	-13,00
-2251,55	152,00
-2241,59	1,00
-2231,64	239,00
-2221,70	76,00
-2211,78	15,00
-2201,87	57,00
-2191,97	63,00
-2182,09	40,00
-2172,22	24,00
-2162,37	-4,00
-2152,53	39,00
-2142,70	27,00
-2132,89	-35,00
-2123,09	29,00
-2113,30	134,00
-2103,53	17,00
-2093,77	67,00
-2084,02	116,00
-2074,29	85,00
-2064,57	81,00
-2054,86	42,00
-2045,17	79,00
-2035,49	59,00
-2025,82	90,00
-2016,17	118,00
-2006,53	-16,00
-1996,91	43,00
-1987,29	-88,00
-1977,69	213,00
-1968,11	135,00
-1958,53	72,00
-1948,97	87,00
-1939,42	68,00
-1929,89	34,00
-1920,37	120,00
-1910,86	31,00
-1901,36	29,00
-1891,88	85,00
-1882,41	106,00
-1872,95	35,00
-1863,51	162,00
-1854,08	26,00
-1844,66	150,00
-1835,26	117,00
-1825,86	76,00
-1816,48	78,00
-1807,11	14,00
-1797,76	-16,00
-1788,42	91,00
-1779,09	37,00
-1769,77	211,00
-1760,47	63,00
-1751,17	69,00
-1741,89	167,00
-1732,63	52,00
-1723,37	134,00
-1714,13	17,00
-1704,90	33,00
-1695,68	125,00
-1686,48	25,00
-1677,29	127,00
-1668,11	15,00
-1658,94	125,00
-1649,78	28,00
-1640,64	-26,00
-1631,51	122,00
-1622,39	-19,00
-1613,28	134,00
-1604,19	87,00
-1595,10	177,00
-1586,03	49,00
-1576,97	249,00
-1567,93	91,00
-1558,89	-1,00
-1549,87	7,00
-1540,86	33,00
-1531,86	77,00
-1522,87	24,00
-1513,90	10,00
-1504,93	48,00
-1495,98	92,00
-1487,04	117,00
-1478,12	167,00
-1469,20	-16,00
-1460,30	106,00
-1451,40	52,00
-1442,52	114,00
-1433,65	15,00
-1424,80	115,00
-1415,95	66,00
-1407,12	278,00
-1398,30	19,00
-1389,48	14,00
-1380,69	-65,00
-1371,90	29,00
-1363,12	-19,00
-1354,36	124,00
-1345,60	49,00
-1336,86	8,00
-1328,13	114,00
-1319,41	74,00
-1310,70	91,00
-1302,01	12,00
-1293,32	15,00
-1284,65	89,00
-1275,99	169,00
-1267,33	77,00
-1258,69	121,00
-1250,06	119,00
-1241,45	144,00
-1232,84	125,00
-1224,25	2,00
-1215,66	24,00
-1207,09	26,00
-1198,53	154,00
-1189,97	160,00
-1181,43	52,00
-1172,91	46,00
-1164,39	102,00
-1155,88	58,00
-1147,38	186,00
-1138,90	73,00
-1130,43	30,00
-1121,96	154,00
-1113,51	70,00
-1105,07	80,00
-1096,64	-7,00
-1088,22	90,00
-1079,81	208,00
-1071,41	67,00
-1063,02	28,00
-1054,65	29,00
-1046,28	125,00
-1037,92	56,00
-1029,58	36,00
-1021,24	40,00
-1012,92	146,00
-1004,61	126,00
-996,30	133,00
-988,01	52,00
-979,73	129,00
-971,46	182,00
-963,20	8,00
-954,95	107,00
-946,71	12,00
-938,48	-1,00
-930,26	44,00
-922,06	195,00
-913,86	108,00
-905,67	3,00
-897,49	95,00
-889,33	52,00
-881,17	76,00
-873,02	154,00
-864,89	-35,00
-856,76	109,00
-848,65	169,00
-840,54	52,00
-832,45	134,00
-824,36	-5,00
-816,29	121,00
-808,22	22,00
-800,17	45,00
-792,12	185,00
-784,09	68,00
-776,06	46,00
-768,05	10,00
-760,04	113,00
-752,05	76,00
-744,07	22,00
-736,09	82,00
-728,13	106,00
-720,17	16,00
-712,23	29,00
-704,29	138,00
-696,37	16,00
-688,45	37,00
-680,55	59,00
-672,65	163,00
-664,77	88,00
-656,89	143,00
-649,03	41,00
-641,17	56,00
-633,32	139,00
-625,49	122,00
-617,66	56,00
-609,84	75,00
-602,03	96,00
-594,23	75,00
-586,45	91,00
-578,67	119,00
-570,90	174,00
-563,14	118,00
-555,39	97,00
-547,65	78,00
-539,91	19,00
-532,19	238,00
-524,48	133,00
-516,78	34,00
-509,08	107,00
-501,40	105,00
-493,72	119,00
-486,06	160,00
-478,40	32,00
-470,76	102,00
-463,12	167,00
-455,49	151,00
-447,87	88,00
-440,26	87,00
-432,66	157,00
-425,07	187,00
-417,49	55,00
-409,92	31,00
-402,35	133,00
-394,80	225,00
-387,25	197,00
-379,72	165,00
-372,19	218,00
-364,67	123,00
-357,17	131,00
-349,67	199,00
-342,18	227,00
-334,69	183,00
-327,22	185,00
-319,76	153,00
-312,30	170,00
-304,86	188,00
-297,42	184,00
-290,00	271,00
-282,58	155,00
-275,17	174,00
-267,77	234,00
-260,37	150,00
-252,99	125,00
-245,62	279,00
-238,25	232,00
-230,90	314,00
-223,55	249,00
-216,21	377,00
-208,88	461,00
-201,56	415,00
-194,25	437,00
-186,94	565,00
-179,65	516,00
-172,36	653,00
-165,08	744,00
-157,81	691,00
-150,55	732,00
-143,30	919,00
-136,06	804,00
-128,82	1134,00
-121,60	1270,00
-114,38	1295,00
-107,17	1517,00
-99,97	1629,00
-92,78	1927,00
-85,60	2125,00
-78,42	2527,00
-71,25	2829,00
-64,10	3241,00
-56,95	3918,00
-49,81	4593,00
-42,67	5681,00
-35,55	7121,00
-28,43	9398,00
-21,33	15332,00
-14,23	47868,00
-7,14	56043,00
-0,05	55763,00
7,02	55513,00
14,09	55717,00
21,14	46378,00
28,19	20725,00
35,23	12686,00
42,27	9364,00
49,29	7634,00
56,31	6482,00
63,32	5376,00
70,32	4368,00
77,31	3720,00
84,29	3221,00
91,27	2787,00
98,23	2592,00
105,19	2238,00
112,14	2080,00
119,09	2258,00
126,02	2848,00
132,95	2868,00
139,87	2815,00
146,78	2587,00
153,68	2525,00
160,58	2514,00
167,46	2427,00
174,34	2318,00
181,21	2251,00
188,08	2290,00
194,93	2130,00
201,78	2264,00
208,62	2202,00
215,45	2102,00
222,27	2121,00
229,09	2017,00
235,90	2004,00
242,70	1985,00
249,49	2010,00
256,27	1828,00
263,05	1897,00
269,82	1947,00
276,58	1889,00
283,33	1878,00
290,08	1961,00
296,82	1717,00
303,55	1845,00
310,27	1860,00
316,98	1709,00
323,69	1757,00
330,39	1655,00
337,08	1733,00
343,76	1781,00
350,44	1704,00
357,11	1676,00
363,77	1655,00
370,42	1651,00
377,07	1592,00
383,71	1683,00
390,34	1656,00
396,96	1647,00
403,58	1647,00
410,19	1687,00
416,79	1854,00
423,38	1921,00
429,97	1669,00
436,55	1485,00
443,12	1550,00
449,68	1409,00
456,24	1522,00
462,79	1460,00
469,33	1471,00
475,86	1471,00
482,39	1543,00
488,91	1439,00
495,42	1407,00
501,93	1351,00
508,42	1297,00
514,91	1375,00
521,40	1381,00
527,87	1259,00
534,34	1294,00
540,80	1155,00
547,25	1246,00
553,70	1282,00
560,14	1319,00
566,57	1244,00
573,00	1252,00
579,41	1288,00
585,83	1376,00
592,23	1344,00
598,62	1142,00
605,01	1260,00
611,40	1306,00
617,77	1309,00
624,14	1171,00
630,50	1303,00
636,85	1239,00
643,20	1226,00
649,54	1242,00
655,87	1223,00
662,20	1052,00
668,52	1163,00
674,83	1245,00
681,13	1236,00
687,43	1080,00
693,72	1058,00
700,00	1124,00
706,28	1196,00
712,55	1157,00
718,81	1081,00
725,07	1133,00
731,32	1154,00
737,56	1285,00
743,79	1234,00
750,02	1148,00
756,24	1343,00
762,46	1194,00
768,67	1092,00
774,87	1093,00
781,06	1255,00
787,25	1100,00
793,43	1090,00
799,60	1022,00
805,77	1137,00
811,93	1009,00
818,08	1151,00
824,23	1167,00
830,37	1115,00
836,50	1016,00
842,63	1084,00
848,75	1156,00
854,87	1067,00
860,97	1025,00
867,07	1101,00
873,17	1054,00
879,25	1035,00
885,33	1136,00
891,41	1148,00
897,47	1043,00
903,53	1062,00
909,59	994,00
915,63	1011,00
921,67	1029,00
927,71	1122,00
933,74	1028,00
939,76	1036,00
945,77	981,00
951,78	1002,00
957,78	1010,00
963,78	1111,00
969,77	968,00
975,75	1044,00
981,72	1031,00
987,69	1070,00
993,66	949,00
999,61	948,00
1005,56	959,00
1011,51	1077,00
1017,44	993,00
1023,37	939,00
1029,30	1066,00
1035,22	996,00
1041,13	919,00
1047,03	991,00
1052,93	1012,00
1058,83	1096,00
1064,71	1215,00
1070,59	1151,00
1076,47	988,00
1082,33	944,00
1088,20	891,00
1094,05	859,00
1099,90	933,00
1105,74	902,00
1111,58	964,00
1117,41	892,00
1123,23	950,00
1129,05	1049,00
1134,86	971,00
1140,67	916,00
1146,47	884,00
1152,26	985,00
1158,05	824,00
1163,83	980,00
1169,60	832,00
1175,37	708,00
1181,13	898,00
1186,89	855,00
1192,64	837,00
1198,38	920,00
1204,12	823,00
1209,85	853,00
1215,58	782,00
1221,30	904,00
1227,02	829,00
1232,72	927,00
1238,43	843,00
1244,12	860,00
1249,81	831,00
1255,50	931,00
1261,17	818,00
1266,85	929,00
1272,51	946,00
1278,17	855,00
1283,83	1024,00
1289,47	1088,00
1295,12	1251,00
1300,75	1234,00
1306,38	1166,00
1312,01	1077,00
1317,63	929,00
1323,24	1045,00
1328,85	982,00
1334,45	1053,00
1340,04	951,00
1345,63	975,00
1351,22	961,00
1356,80	902,00
1362,37	1082,00
1367,93	1069,00
1373,49	982,00
1379,05	1236,00
1384,60	1047,00
1390,14	1106,00
1395,68	1161,00
1401,21	1021,00
1406,74	1079,00
1412,26	1026,00
1417,77	1137,00
1423,28	1136,00
1428,78	1295,00
1434,28	1401,00
1439,77	1469,00
1445,26	1432,00
1450,74	1442,00
1456,22	1298,00
1461,68	1329,00
1467,15	1219,00
1472,61	1246,00
1478,06	1074,00
1483,51	972,00
1488,95	939,00
1494,38	1024,00
1499,81	914,00
1505,24	877,00
1510,65	869,00
1516,07	712,00
1521,48	871,00
1526,88	855,00
1532,27	857,00
1537,67	793,00
1543,05	947,00
1548,43	925,00
1553,81	805,00
1559,18	658,00
1564,54	859,00
1569,90	804,00
1575,25	722,00
1580,60	808,00
1585,94	849,00
1591,28	807,00
1596,61	746,00
1601,93	800,00
1607,25	663,00
1612,57	756,00
1617,88	874,00
1623,18	831,00
1628,48	744,00
1633,77	801,00
1639,06	834,00
1644,34	752,00
1649,62	750,00
1654,89	758,00
1660,16	676,00
1665,42	787,00
1670,67	739,00
1675,92	750,00
1681,17	658,00
1686,41	675,00
1691,64	739,00
1696,87	767,00
1702,10	567,00
1707,32	708,00
1712,53	699,00
1717,74	604,00
1722,94	791,00
1728,14	643,00
1733,33	614,00
1738,52	628,00
1743,70	636,00
1748,88	700,00
1754,05	470,00
1759,22	696,00
1764,38	628,00
1769,53	692,00
1774,69	549,00
1779,83	663,00
1784,97	651,00
1790,11	583,00
1795,24	569,00
1800,36	502,00
1805,48	710,00
1810,60	592,00
1815,71	508,00
1820,82	485,00
1825,92	457,00
1831,01	469,00
1836,10	653,00
1841,19	476,00
1846,26	419,00
1851,34	484,00
1856,41	611,00
1861,47	548,00
1866,53	455,00
1871,59	499,00
1876,64	604,00
1881,68	510,00
1886,72	481,00
1891,76	524,00
1896,79	606,00
1901,81	430,00
1906,83	455,00
1911,85	548,00
1916,86	651,00
1921,86	513,00
1926,86	565,00
1931,86	358,00
1936,85	403,00
1941,83	499,00
1946,81	420,00
1951,79	528,00
1956,76	570,00
1961,72	385,00
1966,68	450,00
1971,64	426,00
1976,59	441,00
1981,54	323,00
1986,48	386,00
1991,42	388,00
1996,35	515,00
2001,27	388,00
2006,20	408,00
2011,11	434,00
2016,03	451,00
2020,93	397,00
2025,84	258,00
2030,73	409,00
2035,63	352,00
2040,52	428,00
2045,40	410,00
2050,28	329,00
2055,15	336,00
2060,02	311,00
2064,89	386,00
2069,75	284,00
2074,60	418,00
2079,46	352,00
2084,30	381,00
2089,14	364,00
2093,98	216,00
2098,81	315,00
2103,64	385,00
2108,46	403,00
2113,28	483,00
2118,09	316,00
2122,90	414,00
2127,70	347,00
2132,50	393,00
2137,30	209,00
2142,09	341,00
2146,87	425,00
2151,66	315,00
2156,43	353,00
2161,20	478,00
2165,97	316,00
2170,73	360,00
2175,49	328,00
2180,24	368,00
2184,99	386,00
2189,74	259,00
2194,48	257,00
2199,21	363,00
2203,94	276,00
2208,67	376,00
2213,39	282,00
2218,11	309,00
2222,82	336,00
2227,53	280,00
2232,23	267,00
2236,93	383,00
2241,63	335,00
2246,32	428,00
2251,00	248,00
2255,68	305,00
2260,36	368,00
2265,03	157,00
2269,70	364,00
2274,36	285,00
2279,02	327,00
2283,68	212,00
2288,33	329,00
2292,97	382,00
2297,61	314,00
2302,25	170,00
2306,88	295,00
2311,51	261,00
2316,14	260,00
2320,75	207,00
2325,37	240,00
2329,98	325,00
2334,59	236,00
2339,19	315,00
2343,79	186,00
2348,38	258,00
2352,97	265,00
2357,55	298,00
2362,13	265,00
2366,71	271,00
2371,28	410,00
2375,85	281,00
2380,41	256,00
2384,97	259,00
2389,52	248,00
2394,07	328,00
2398,62	214,00
2403,16	285,00
2407,70	223,00
2412,23	183,00
2416,76	339,00
2421,29	185,00
2425,81	145,00
2430,32	345,00
2434,84	204,00
2439,34	253,00
2443,85	287,00
2448,35	270,00
2452,84	309,00
2457,33	256,00
2461,82	282,00
2466,30	315,00
2470,78	154,00
2475,25	211,00
2479,72	151,00
2484,19	198,00
2488,65	226,00
2493,11	180,00
2497,56	247,00
2502,01	300,00
2506,46	257,00
2510,90	227,00
2515,34	254,00
2519,77	271,00
2524,20	230,00
2528,62	184,00
2533,04	204,00
2537,46	260,00
2541,87	180,00
2546,28	259,00
2550,68	201,00
2555,08	223,00
2559,48	279,00
2563,87	241,00
2568,26	258,00
2572,64	183,00
2577,02	332,00
2581,40	233,00
2585,77	167,00
2590,14	280,00
2594,50	190,00
2598,86	318,00
2603,22	122,00
2607,57	150,00
2611,92	209,00
2616,26	195,00
2620,60	255,00
2624,94	296,00
2629,27	209,00
2633,60	207,00
2637,92	274,00
2642,24	114,00
2646,56	208,00
2650,87	130,00
2655,18	266,00
2659,48	133,00
2663,78	255,00
2668,08	200,00
2672,37	251,00
2676,66	198,00
2680,95	390,00
2685,23	241,00
2689,50	188,00
2693,78	155,00
2698,05	235,00
2702,31	175,00
2706,57	247,00
2710,83	194,00
2715,08	304,00
2719,33	246,00
2723,58	217,00
2727,82	323,00
2732,06	321,00
2736,29	262,00
2740,53	225,00
2744,75	287,00
2748,97	371,00
2753,19	291,00
2757,41	234,00
2761,62	174,00
2765,83	200,00
2770,03	201,00
2774,23	131,00
2778,43	197,00
2782,62	220,00
2786,81	139,00
2791,00	246,00
2795,18	358,00
2799,35	281,00
2803,53	313,00
2807,70	272,00
2811,86	311,00
2816,03	306,00
2820,19	339,00
2824,34	235,00
2828,49	308,00
2832,64	307,00
2836,78	458,00
2840,92	525,00
2845,06	659,00
2849,19	764,00
2853,32	781,00
2857,45	620,00
2861,57	674,00
2865,69	731,00
2869,80	615,00
2873,91	680,00
2878,02	703,00
2882,12	734,00
2886,22	798,00
2890,32	720,00
2894,41	654,00
2898,50	626,00
2902,58	636,00
2906,67	682,00
2910,74	576,00
2914,82	505,00
2918,89	523,00
2922,96	505,00
2927,02	536,00
2931,08	441,00
2935,13	294,00
2939,19	322,00
2943,24	429,00
2947,28	286,00
2951,32	325,00
2955,36	324,00
2959,40	196,00
2963,43	297,00
2967,46	147,00
2971,48	198,00
2975,50	264,00
2979,52	176,00
2983,53	252,00
2987,54	190,00
2991,55	232,00
2995,55	182,00
2999,55	98,00
3003,54	114,00
3007,54	142,00
3011,53	117,00
3015,51	108,00
3019,49	206,00
3023,47	152,00
3027,45	150,00
3031,42	131,00
3035,39	263,00
3039,35	79,00
3043,31	66,00
3047,27	105,00
3051,22	135,00
3055,17	191,00
3059,12	158,00
3063,06	194,00
3067,00	244,00
3070,94	139,00
3074,87	199,00
3078,80	31,00
3082,73	189,00
3086,65	161,00
3090,57	96,00
3094,49	131,00
3098,40	151,00
3102,31	143,00
3106,22	193,00
3110,12	106,00
3114,02	72,00
3117,92	69,00
3121,81	174,00
3125,70	224,00
3129,58	139,00
3133,47	128,00
3137,34	97,00
3141,22	30,00
3145,09	125,00
3148,96	-5,00
3152,83	270,00
3156,69	73,00
3160,55	200,00
3164,40	128,00
3168,26	219,00
3172,10	151,00
3175,95	142,00
3179,79	114,00
3183,63	146,00
3187,47	138,00
3191,30	-29,00
3195,13	56,00
3198,95	69,00
3202,78	148,00
3206,60	139,00
3210,41	42,00
3214,23	174,00
3218,03	144,00
3221,84	197,00
3225,64	160,00
3229,44	137,00
3233,24	183,00
3237,03	215,00
3240,82	187,00
3244,61	142,00
3248,39	188,00
3252,17	237,00
3255,95	165,00
3259,72	228,00
3263,49	111,00
3267,26	167,00
3271,03	193,00
3274,79	111,00
3278,54	174,00
3282,30	60,00
3286,05	193,00
3289,80	59,00
3293,54	149,00
3297,29	37,00
3301,02	193,00
3304,76	132,00
3308,49	123,00
3312,22	171,00
3315,95	129,00
3319,67	108,00
3323,39	103,00
3327,10	185,00
3330,82	173,00
3334,53	199,00
3338,24	88,00
3341,94	42,00
3345,64	173,00
3349,34	227,00
3353,03	99,00
3356,72	78,00
3360,41	116,00
3364,10	111,00
3367,78	83,00
3371,46	94,00
3375,13	161,00
3378,81	226,00
3382,48	118,00
3386,14	127,00
3389,81	117,00
3393,47	106,00
3397,12	147,00
3400,78	41,00
3404,43	193,00
3408,08	69,00
3411,72	115,00
3415,36	188,00
3419,00	96,00
3422,64	193,00
3426,27	95,00
3429,90	146,00
3433,53	99,00
3437,15	7,00
3440,77	115,00
3444,39	141,00
3448,00	143,00
3451,62	101,00
3455,22	160,00
3458,83	55,00
3462,43	84,00
3466,03	154,00
3469,63	86,00
3473,22	77,00
3476,81	73,00
3480,40	59,00
3483,99	147,00
3487,57	112,00
3491,15	90,00
3494,72	129,00
3498,29	131,00
3501,86	31,00
3505,43	75,00
3508,99	118,00
3512,56	66,00
3516,11	160,00
3519,67	83,00
3523,22	92,00
3526,77	56,00
3530,32	112,00
3533,86	142,00
3537,40	1,00
3540,94	112,00
3544,47	78,00
3548,00	17,00
3551,53	79,00
3555,06	101,00
3558,58	3,00
3562,10	119,00
3565,62	132,00
3569,13	3,00
3572,64	68,00
3576,15	64,00
3579,66	68,00
3583,16	57,00
3586,66	111,00
3590,16	107,00
3593,65	-29,00
3597,14	80,00
3600,63	85,00
3604,11	46,00
3607,60	111,00
3611,08	83,00
3614,55	162,00
3618,03	18,00
3621,50	-40,00
3624,97	-15,00
3628,43	46,00
3631,90	46,00
3635,36	80,00
3638,81	126,00
3642,27	68,00
3645,72	69,00
3649,17	47,00
3652,61	38,00
3656,06	-82,00
3659,50	42,00
3662,93	15,00
3666,37	140,00
3669,80	111,00
3673,23	171,00
3676,65	63,00
3680,08	74,00
3683,50	152,00
3686,92	44,00
3690,33	48,00
3693,74	110,00
3697,15	83,00
3700,56	10,00
3703,96	145,00
3707,36	-20,00
3710,76	104,00
3714,16	78,00
3717,55	179,00
3720,94	113,00
3724,33	99,00
3727,71	-8,00
3731,10	13,00
3734,48	17,00
3737,85	-42,00
3741,23	26,00
3744,60	41,00
3747,97	30,00
3751,33	41,00
3754,69	129,00
3758,05	35,00
3761,41	105,00
3764,77	118,00
3768,12	-3,00
3771,47	115,00
3774,82	64,00
3778,16	-2,00
3781,50	7,00
3784,84	10,00
3788,18	-4,00
>>>>>End Processed Spectral Data<<<<<
