SpectraSuite Data File
++++++++++++++++++++++++++++++++++++
Date: Wed Feb 11 16:49:14 ICT 2026
User: Administrator
Dark Spectrum Present: Yes
Reference Spectrum Present: No
Number of Sampled Component Spectra: 1
Spectrometers: MAYP113682
Integration Time (usec): 3000000 (MAYP113682)
Spectra Averaged: 1 (MAYP113682)
Boxcar Smoothing: 0 (MAYP113682)
Correct for Electrical Dark: No (MAYP113682)
Strobe/Lamp Enabled: No (MAYP113682)
Correct for Detector Non-linearity: No (MAYP113682)
Correct for Stray Light: No (MAYP113682)
Number of Pixels in Processed Spectrum: 2068
>>>>>Begin Processed Spectral Data<<<<<
-37534,58	5,00
-37414,56	1,00
-37295,11	0,00
-37176,24	-3,00
-37057,95	-90,00
-36940,22	-153,00
-36823,05	-69,00
-36706,45	-34,00
-36590,40	-85,00
-36474,90	-92,00
-36359,95	-113,00
-36245,55	-111,00
-36131,68	-24,00
-36018,35	-41,00
-35905,55	51,00
-35793,29	-50,00
-35681,54	-72,00
-35570,32	-70,00
-35459,62	-11,00
-35349,43	-77,00
-35239,75	-30,00
-35130,58	-65,00
-35021,91	-157,00
-34913,74	-80,00
-34806,07	-110,00
-34698,89	-100,00
-34592,20	-39,00
-34486,00	-116,00
-34380,28	6,00
-34275,04	-186,00
-34170,27	-107,00
-34065,98	-230,00
-33962,16	-119,00
-33858,81	-32,00
-33755,92	-104,00
-33653,49	-135,00
-33551,52	-43,00
-33450,01	-165,00
-33348,94	-60,00
-33248,33	-68,00
-33148,16	-83,00
-33048,43	-110,00
-32949,14	-129,00
-32850,29	-129,00
-32751,87	-21,00
-32653,89	-36,00
-32556,33	-178,00
-32459,20	-30,00
-32362,49	10,00
-32266,19	-97,00
-32170,32	-56,00
-32074,86	-112,00
-31979,82	-24,00
-31885,18	-134,00
-31790,95	-135,00
-31697,12	-104,00
-31603,69	-53,00
-31510,67	-187,00
-31418,04	-20,00
-31325,80	-89,00
-31233,95	-7,00
-31142,49	-22,00
-31051,42	-109,00
-30960,73	-108,00
-30870,43	-21,00
-30780,50	-75,00
-30690,95	38,00
-30601,77	-115,00
-30512,97	-19,00
-30424,53	-35,00
-30336,46	-70,00
-30248,76	-63,00
-30161,42	-131,00
-30074,44	-106,00
-29987,81	-138,00
-29901,55	-31,00
-29815,63	-36,00
-29730,07	-105,00
-29644,86	-50,00
-29560,00	-152,00
-29475,48	-77,00
-29391,30	-136,00
-29307,47	-45,00
-29223,97	-81,00
-29140,81	-148,00
-29057,99	-108,00
-28975,50	-92,00
-28893,34	-126,00
-28811,51	-60,00
-28730,00	-17,00
-28648,82	29,00
-28567,97	-52,00
-28487,43	-80,00
-28407,21	-92,00
-28327,32	-140,00
-28247,73	-54,00
-28168,46	-60,00
-28089,50	-81,00
-28010,85	-158,00
-27932,51	-131,00
-27854,48	-82,00
-27776,75	-174,00
-27699,32	-103,00
-27622,19	-136,00
-27545,37	-70,00
-27468,84	-95,00
-27392,60	15,00
-27316,66	-154,00
-27241,01	-105,00
-27165,66	-72,00
-27090,59	-160,00
-27015,81	-75,00
-26941,31	-33,00
-26867,10	-12,00
-26793,17	-98,00
-26719,52	-44,00
-26646,15	-189,00
-26573,06	-83,00
-26500,24	-150,00
-26427,70	-81,00
-26355,43	-102,00
-26283,43	-71,00
-26211,71	-192,00
-26140,25	-32,00
-26069,06	-82,00
-25998,13	-60,00
-25927,46	-116,00
-25857,06	-116,00
-25786,92	-42,00
-25717,04	-60,00
-25647,42	-30,00
-25578,05	-48,00
-25508,94	-85,00
-25440,09	-56,00
-25371,48	-139,00
-25303,13	-40,00
-25235,02	37,00
-25167,17	-56,00
-25099,56	-147,00
-25032,19	-94,00
-24965,07	-191,00
-24898,20	-51,00
-24831,56	-85,00
-24765,17	-22,00
-24699,01	-79,00
-24633,10	-99,00
-24567,41	-92,00
-24501,97	-134,00
-24436,75	-49,00
-24371,77	-128,00
-24307,03	-51,00
-24242,51	-92,00
-24178,22	-139,00
-24114,16	-121,00
-24050,32	-5,00
-23986,71	-16,00
-23923,32	9,00
-23860,16	-69,00
-23797,22	-114,00
-23734,50	-74,00
-23672,00	-84,00
-23609,71	-7,00
-23547,65	-133,00
-23485,80	-34,00
-23424,16	-59,00
-23362,74	-79,00
-23301,53	-170,00
-23240,54	-84,00
-23179,75	-39,00
-23119,17	-112,00
-23058,80	-122,00
-22998,64	-135,00
-22938,68	-24,00
-22878,93	-95,00
-22819,39	-116,00
-22760,04	-58,00
-22700,90	-148,00
-22641,96	-133,00
-22583,22	-39,00
-22524,68	-128,00
-22466,33	-139,00
-22408,19	-117,00
-22350,23	-154,00
-22292,48	-68,00
-22234,92	-40,00
-22177,55	-107,00
-22120,37	-115,00
-22063,38	-56,00
-22006,58	-54,00
-21949,98	-3,00
-21893,56	-17,00
-21837,33	-126,00
-21781,28	-111,00
-21725,42	-54,00
-21669,74	-56,00
-21614,25	-75,00
-21558,94	-100,00
-21503,81	-82,00
-21448,86	-158,00
-21394,10	-48,00
-21339,51	-17,00
-21285,10	-102,00
-21230,86	-86,00
-21176,81	-12,00
-21122,93	-82,00
-21069,22	-42,00
-21015,69	32,00
-20962,33	-15,00
-20909,14	-106,00
-20856,13	24,00
-20803,28	-23,00
-20750,61	-36,00
-20698,10	-54,00
-20645,76	-27,00
-20593,59	-43,00
-20541,59	-82,00
-20489,75	-98,00
-20438,07	6,00
-20386,56	-40,00
-20335,22	-78,00
-20284,03	-37,00
-20233,01	-87,00
-20182,15	-188,00
-20131,45	-104,00
-20080,91	-194,00
-20030,52	-31,00
-19980,30	-194,00
-19930,23	-9,00
-19880,32	49,00
-19830,56	-134,00
-19780,96	-109,00
-19731,52	-70,00
-19682,23	31,00
-19633,09	-194,00
-19584,10	-74,00
-19535,26	-82,00
-19486,58	-6,00
-19438,04	-11,00
-19389,66	-75,00
-19341,42	-32,00
-19293,33	-199,00
-19245,39	-52,00
-19197,60	-123,00
-19149,95	-110,00
-19102,45	-115,00
-19055,09	-100,00
-19007,87	-101,00
-18960,80	-44,00
-18913,87	-75,00
-18867,09	-194,00
-18820,44	-25,00
-18773,94	-12,00
-18727,57	-129,00
-18681,35	-48,00
-18635,26	19,00
-18589,31	-120,00
-18543,50	-80,00
-18497,83	-98,00
-18452,29	-120,00
-18406,89	-152,00
-18361,63	-82,00
-18316,50	-94,00
-18271,50	-171,00
-18226,63	-75,00
-18181,90	-68,00
-18137,30	45,00
-18092,84	-126,00
-18048,50	-30,00
-18004,29	-105,00
-17960,22	-3,00
-17916,27	-64,00
-17872,45	-113,00
-17828,76	-94,00
-17785,20	-13,00
-17741,77	37,00
-17698,46	-50,00
-17655,28	-105,00
-17612,22	-41,00
-17569,29	-138,00
-17526,48	-120,00
-17483,79	-66,00
-17441,23	-194,00
-17398,79	-143,00
-17356,48	-57,00
-17314,28	-111,00
-17272,21	-19,00
-17230,26	-125,00
-17188,42	-92,00
-17146,71	-62,00
-17105,12	-45,00
-17063,64	-56,00
-17022,28	-110,00
-16981,04	-5,00
-16939,92	-90,00
-16898,91	-112,00
-16858,02	-89,00
-16817,25	-227,00
-16776,59	-11,00
-16736,04	-138,00
-16695,61	-139,00
-16655,29	-104,00
-16615,09	-126,00
-16574,99	-105,00
-16535,01	-93,00
-16495,15	-163,00
-16455,39	-44,00
-16415,74	-170,00
-16376,21	-108,00
-16336,78	-157,00
-16297,46	-53,00
-16258,26	-60,00
-16219,16	-82,00
-16180,17	-67,00
-16141,28	-133,00
-16102,51	-49,00
-16063,84	-33,00
-16025,27	-127,00
-15986,82	-141,00
-15948,46	-62,00
-15910,22	-32,00
-15872,07	-2,00
-15834,04	-122,00
-15796,10	-43,00
-15758,27	-11,00
-15720,54	-62,00
-15682,91	-129,00
-15645,39	-96,00
-15607,97	-126,00
-15570,64	-19,00
-15533,42	-86,00
-15496,30	-158,00
-15459,28	-27,00
-15422,36	-74,00
-15385,54	-39,00
-15348,82	-69,00
-15312,19	-91,00
-15275,66	-76,00
-15239,23	-118,00
-15202,90	-77,00
-15166,67	-181,00
-15130,53	-97,00
-15094,48	-59,00
-15058,54	-97,00
-15022,68	-94,00
-14986,93	-16,00
-14951,26	-77,00
-14915,69	-169,00
-14880,22	-85,00
-14844,84	-196,00
-14809,55	-72,00
-14774,35	-150,00
-14739,25	-116,00
-14704,24	-89,00
-14669,32	-106,00
-14634,49	-85,00
-14599,75	-49,00
-14565,10	-191,00
-14530,55	-144,00
-14496,08	-125,00
-14461,70	-80,00
-14427,41	-76,00
-14393,21	-144,00
-14359,10	-113,00
-14325,07	-152,00
-14291,14	-52,00
-14257,29	-87,00
-14223,52	-57,00
-14189,85	-175,00
-14156,26	-59,00
-14122,76	-65,00
-14089,34	-88,00
-14056,01	-230,00
-14022,76	-157,00
-13989,60	-82,00
-13956,52	-134,00
-13923,53	-136,00
-13890,62	-124,00
-13857,79	-229,00
-13825,05	-233,00
-13792,39	11,00
-13759,81	-3,00
-13727,31	-125,00
-13694,90	-158,00
-13662,57	-63,00
-13630,31	-212,00
-13598,14	32,00
-13566,05	-136,00
-13534,05	-171,00
-13502,12	67,00
-13470,27	-27,00
-13438,50	-112,00
-13406,80	19,00
-13375,19	-105,00
-13343,66	-69,00
-13312,20	55,00
-13280,83	-118,00
-13249,53	70,00
-13218,30	-145,00
-13187,16	-43,00
-13156,09	-83,00
-13125,10	-93,00
-13094,18	-118,00
-13063,34	-42,00
-13032,58	-60,00
-13001,89	-101,00
-12971,28	-81,00
-12940,74	-140,00
-12910,27	-33,00
-12879,88	-39,00
-12849,57	-42,00
-12819,33	-176,00
-12789,16	-21,00
-12759,06	-50,00
-12729,04	-95,00
-12699,09	-1059,00
-12669,21	-102,00
-12639,41	-73,00
-12609,68	-90,00
-12580,02	-55,00
-12550,43	-203,00
-12520,91	-94,00
-12491,46	-36,00
-12462,08	-106,00
-12432,77	-274,00
-12403,54	-149,00
-12374,37	-76,00
-12345,27	-48,00
-12316,24	-115,00
-12287,29	-95,00
-12258,40	-54,00
-12229,57	-14,00
-12200,82	-58,00
-12172,14	-61,00
-12143,52	-23,00
-12114,97	-76,00
-12086,49	-86,00
-12058,07	-101,00
-12029,73	37,00
-12001,44	-141,00
-11973,23	-71,00
-11945,08	-98,00
-11917,00	49,00
-11888,98	-138,00
-11861,03	-66,00
-11833,15	-95,00
-11805,32	-38,00
-11777,57	-116,00
-11749,88	-32,00
-11722,25	-129,00
-11694,69	0,00
-11667,19	-198,00
-11639,75	-71,00
-11612,38	-126,00
-11585,07	-211,00
-11557,83	-103,00
-11530,65	-162,00
-11503,53	16,00
-11476,47	-55,00
-11449,48	-142,00
-11422,54	-121,00
-11395,67	-100,00
-11368,86	-61,00
-11342,11	-101,00
-11315,43	-70,00
-11288,80	-156,00
-11262,23	-99,00
-11235,73	-129,00
-11209,28	-41,00
-11182,90	-44,00
-11156,57	-112,00
-11130,31	-94,00
-11104,10	-13,00
-11077,96	-58,00
-11051,87	-48,00
-11025,84	-146,00
-10999,87	50,00
-10973,96	-139,00
-10948,11	-89,00
-10922,31	10,00
-10896,58	-8,00
-10870,90	-123,00
-10845,28	-21,00
-10819,71	-13,00
-10794,20	-90,00
-10768,75	-45,00
-10743,36	-200,00
-10718,02	-94,00
-10692,74	-27,00
-10667,52	-134,00
-10642,35	-54,00
-10617,24	-35,00
-10592,18	-27,00
-10567,18	-156,00
-10542,23	32,00
-10517,34	-25,00
-10492,51	49,00
-10467,72	-49,00
-10443,00	-46,00
-10418,32	59,00
-10393,70	-92,00
-10369,14	-36,00
-10344,63	23,00
-10320,17	11,00
-10295,77	110,00
-10271,42	45,00
-10247,12	54,00
-10222,88	93,00
-10198,68	110,00
-10174,54	67,00
-10150,46	83,00
-10126,42	95,00
-10102,44	115,00
-10078,51	111,00
-10054,63	33,00
-10030,80	139,00
-10007,03	144,00
-9983,30	17,00
-9959,63	226,00
-9936,01	186,00
-9912,44	189,00
-9888,92	216,00
-9865,44	244,00
-9842,02	259,00
-9818,65	342,00
-9795,33	343,00
-9772,06	322,00
-9748,84	315,00
-9725,67	306,00
-9702,55	544,00
-9679,47	598,00
-9656,45	587,00
-9633,47	576,00
-9610,55	606,00
-9587,67	841,00
-9564,84	763,00
-9542,06	923,00
-9519,32	920,00
-9496,64	1076,00
-9474,00	1199,00
-9451,41	1304,00
-9428,87	1277,00
-9406,37	1202,00
-9383,92	1076,00
-9361,52	1159,00
-9339,17	1204,00
-9316,86	1493,00
-9294,60	1745,00
-9272,38	1974,00
-9250,21	2127,00
-9228,09	2275,00
-9206,01	2142,00
-9183,98	1985,00
-9162,00	1782,00
-9140,06	1654,00
-9118,16	1779,00
-9096,31	1885,00
-9074,51	1990,00
-9052,75	2131,00
-9031,04	1906,00
-9009,37	1638,00
-8987,74	1514,00
-8966,16	1233,00
-8944,63	1204,00
-8923,14	1033,00
-8901,69	1165,00
-8880,29	1408,00
-8858,93	1467,00
-8837,61	1780,00
-8816,34	1726,00
-8795,11	1749,00
-8773,92	1607,00
-8752,78	1391,00
-8731,68	1342,00
-8710,62	1385,00
-8689,61	1540,00
-8668,63	1541,00
-8647,70	1733,00
-8626,82	1757,00
-8605,97	1652,00
-8585,17	1528,00
-8564,41	1260,00
-8543,69	1290,00
-8523,01	1223,00
-8502,37	1152,00
-8481,78	1388,00
-8461,23	1475,00
-8440,71	1542,00
-8420,24	1881,00
-8399,81	1776,00
-8379,42	1795,00
-8359,08	1621,00
-8338,77	1406,00
-8318,50	1361,00
-8298,27	1316,00
-8278,09	1254,00
-8257,94	1444,00
-8237,83	1721,00
-8217,76	1678,00
-8197,74	1723,00
-8177,75	1591,00
-8157,80	1563,00
-8137,89	1289,00
-8118,02	1214,00
-8098,19	1294,00
-8078,40	1419,00
-8058,65	1268,00
-8038,93	1424,00
-8019,26	1361,00
-7999,62	1285,00
-7980,02	1178,00
-7960,46	1128,00
-7940,94	976,00
-7921,46	1029,00
-7902,01	1083,00
-7882,60	963,00
-7863,23	1070,00
-7843,90	1129,00
-7824,61	1043,00
-7805,35	1301,00
-7786,13	1242,00
-7766,95	1299,00
-7747,80	1175,00
-7728,69	997,00
-7709,62	1123,00
-7690,59	1226,00
-7671,59	1348,00
-7652,63	1368,00
-7633,70	1303,00
-7614,81	1302,00
-7595,96	1045,00
-7577,15	945,00
-7558,37	1051,00
-7539,62	1011,00
-7520,91	1115,00
-7502,24	1199,00
-7483,60	1229,00
-7465,00	1109,00
-7446,44	957,00
-7427,91	831,00
-7409,41	546,00
-7390,95	684,00
-7372,53	604,00
-7354,14	561,00
-7335,78	584,00
-7317,46	673,00
-7299,18	730,00
-7280,92	964,00
-7262,71	1021,00
-7244,52	1086,00
-7226,38	1147,00
-7208,26	1088,00
-7190,18	997,00
-7172,14	862,00
-7154,12	835,00
-7136,15	1106,00
-7118,20	1078,00
-7100,29	1063,00
-7082,41	1089,00
-7064,57	1141,00
-7046,76	970,00
-7028,98	784,00
-7011,24	577,00
-6993,53	606,00
-6975,85	495,00
-6958,20	359,00
-6940,59	369,00
-6923,01	456,00
-6905,46	682,00
-6887,94	629,00
-6870,46	924,00
-6853,01	1141,00
-6835,59	845,00
-6818,21	810,00
-6800,85	714,00
-6783,53	443,00
-6766,24	414,00
-6748,98	213,00
-6731,76	356,00
-6714,56	237,00
-6697,40	255,00
-6680,26	245,00
-6663,16	350,00
-6646,09	474,00
-6629,05	626,00
-6612,05	717,00
-6595,07	763,00
-6578,13	684,00
-6561,21	433,00
-6544,33	312,00
-6527,47	126,00
-6510,65	249,00
-6493,86	130,00
-6477,10	56,00
-6460,36	223,00
-6443,66	161,00
-6426,99	207,00
-6410,35	215,00
-6393,74	256,00
-6377,16	320,00
-6360,61	296,00
-6344,09	543,00
-6327,59	502,00
-6311,13	525,00
-6294,70	558,00
-6278,29	464,00
-6261,92	684,00
-6245,58	629,00
-6229,26	700,00
-6212,97	561,00
-6196,72	509,00
-6180,49	257,00
-6164,29	13,00
-6148,12	20,00
-6131,98	-31,00
-6115,86	-3,00
-6099,78	-61,00
-6083,72	-92,00
-6067,69	-43,00
-6051,69	64,00
-6035,72	-99,00
-6019,78	228,00
-6003,87	247,00
-5987,98	312,00
-5972,12	487,00
-5956,29	420,00
-5940,49	312,00
-5924,71	271,00
-5908,96	55,00
-5893,24	52,00
-5877,55	103,00
-5861,89	32,00
-5846,25	98,00
-5830,64	39,00
-5815,05	-4,00
-5799,50	233,00
-5783,97	139,00
-5768,47	238,00
-5752,99	287,00
-5737,55	441,00
-5722,12	429,00
-5706,73	413,00
-5691,36	297,00
-5676,02	51,00
-5660,71	3,00
-5645,42	71,00
-5630,16	44,00
-5614,92	158,00
-5599,71	177,00
-5584,53	220,00
-5569,37	384,00
-5554,24	939,00
-5539,14	268,00
-5524,06	291,00
-5509,01	73,00
-5493,98	309,00
-5478,98	199,00
-5464,00	112,00
-5449,05	284,00
-5434,13	110,00
-5419,23	78,00
-5404,36	47,00
-5389,51	234,00
-5374,69	338,00
-5359,89	569,00
-5345,12	529,00
-5330,37	379,00
-5315,65	367,00
-5300,95	285,00
-5286,28	270,00
-5271,63	162,00
-5257,01	112,00
-5242,41	190,00
-5227,84	55,00
-5213,29	120,00
-5198,76	8,00
-5184,26	-81,00
-5169,79	20,00
-5155,33	45,00
-5140,91	206,00
-5126,51	259,00
-5112,13	344,00
-5097,77	148,00
-5083,44	66,00
-5069,13	8,00
-5054,85	119,00
-5040,59	215,00
-5026,36	73,00
-5012,15	182,00
-4997,96	237,00
-4983,80	97,00
-4969,66	144,00
-4955,54	74,00
-4941,44	118,00
-4927,37	254,00
-4913,33	527,00
-4899,30	591,00
-4885,30	564,00
-4871,33	230,00
-4857,37	170,00
-4843,44	22,00
-4829,53	-56,00
-4815,65	175,00
-4801,79	92,00
-4787,95	101,00
-4774,13	27,00
-4760,34	13,00
-4746,56	-124,00
-4732,82	14,00
-4719,09	66,00
-4705,38	311,00
-4691,70	460,00
-4678,04	523,00
-4664,41	254,00
-4650,79	146,00
-4637,20	25,00
-4623,63	137,00
-4610,08	178,00
-4596,56	166,00
-4583,05	228,00
-4569,57	121,00
-4556,11	-15,00
-4542,67	43,00
-4529,25	125,00
-4515,86	241,00
-4502,49	289,00
-4489,13	394,00
-4475,80	281,00
-4462,49	263,00
-4449,21	135,00
-4435,94	102,00
-4422,70	179,00
-4409,47	180,00
-4396,27	174,00
-4383,09	47,00
-4369,93	55,00
-4356,79	-28,00
-4343,67	63,00
-4330,58	115,00
-4317,50	172,00
-4304,45	95,00
-4291,41	0,00
-4278,40	63,00
-4265,41	39,00
-4252,44	143,00
-4239,49	235,00
-4226,55	268,00
-4213,65	149,00
-4200,76	3,00
-4187,89	-9,00
-4175,04	42,00
-4162,21	-67,00
-4149,40	0,00
-4136,61	-62,00
-4123,85	-49,00
-4111,10	-104,00
-4098,37	-24,00
-4085,66	-61,00
-4072,98	-48,00
-4060,31	39,00
-4047,66	-130,00
-4035,04	-77,00
-4022,43	-27,00
-4009,84	-57,00
-3997,27	-79,00
-3984,72	-76,00
-3972,19	-42,00
-3959,69	-102,00
-3947,20	-26,00
-3934,73	-37,00
-3922,27	-127,00
-3909,84	-108,00
-3897,43	12,00
-3885,04	42,00
-3872,67	-126,00
-3860,31	-17,00
-3847,98	-98,00
-3835,66	-68,00
-3823,36	-109,00
-3811,09	-47,00
-3798,83	56,00
-3786,59	-79,00
-3774,37	-137,00
-3762,17	-2,00
-3749,98	-114,00
-3737,82	-66,00
-3725,67	-71,00
-3713,55	-115,00
-3701,44	-26,00
-3689,35	-111,00
-3677,28	-88,00
-3665,22	-52,00
-3653,19	-202,00
-3641,17	-79,00
-3629,18	-98,00
-3617,20	-98,00
-3605,24	-51,00
-3593,30	-82,00
-3581,37	-117,00
-3569,47	-116,00
-3557,58	-185,00
-3545,71	-148,00
-3533,86	49,00
-3522,02	-44,00
-3510,21	-95,00
-3498,41	-122,00
-3486,63	-160,00
-3474,87	-122,00
-3463,12	-4,00
-3451,40	-46,00
-3439,69	-170,00
-3428,00	-52,00
-3416,33	-110,00
-3404,67	-55,00
-3393,03	-171,00
-3381,41	-128,00
-3369,81	-71,00
-3358,22	-115,00
-3346,66	-43,00
-3335,10	-90,00
-3323,57	35,00
-3312,06	-66,00
-3300,56	-37,00
-3289,08	-95,00
-3277,61	-200,00
-3266,16	-122,00
-3254,73	-111,00
-3243,32	-85,00
-3231,92	-128,00
-3220,55	-42,00
-3209,18	-53,00
-3197,84	-189,00
-3186,51	-179,00
-3175,20	-137,00
-3163,90	-139,00
-3152,63	-51,00
-3141,36	-57,00
-3130,12	-109,00
-3118,89	-41,00
-3107,68	-88,00
-3096,49	-112,00
-3085,31	-80,00
-3074,15	-103,00
-3063,00	2,00
-3051,87	-82,00
-3040,76	-74,00
-3029,67	-122,00
-3018,59	-160,00
-3007,52	-90,00
-2996,48	-165,00
-2985,44	-53,00
-2974,43	-76,00
-2963,43	-17,00
-2952,45	-113,00
-2941,48	-45,00
-2930,53	-121,00
-2919,60	-88,00
-2908,68	-138,00
-2897,78	-72,00
-2886,89	-194,00
-2876,02	-154,00
-2865,17	-207,00
-2854,33	22,00
-2843,50	-155,00
-2832,70	-71,00
-2821,90	-23,00
-2811,13	-19,00
-2800,37	9,00
-2789,62	-73,00
-2778,89	-1,00
-2768,18	11,00
-2757,48	-28,00
-2746,80	-97,00
-2736,13	-139,00
-2725,48	-144,00
-2714,84	-184,00
-2704,22	-107,00
-2693,61	-29,00
-2683,02	-84,00
-2672,45	-31,00
-2661,89	-137,00
-2651,34	-126,00
-2640,81	-109,00
-2630,30	-27,00
-2619,80	-64,00
-2609,31	-120,00
-2598,84	-35,00
-2588,39	26,00
-2577,95	-109,00
-2567,52	-157,00
-2557,11	-179,00
-2546,71	-59,00
-2536,33	-30,00
-2525,97	-141,00
-2515,62	-50,00
-2505,28	-56,00
-2494,96	-220,00
-2484,65	-115,00
-2474,36	-15,00
-2464,08	-49,00
-2453,82	1,00
-2443,57	-133,00
-2433,33	-25,00
-2423,11	-134,00
-2412,91	-52,00
-2402,72	-71,00
-2392,54	-152,00
-2382,38	-65,00
-2372,23	-42,00
-2362,09	3775,00
-2351,97	-132,00
-2341,87	-15,00
-2331,78	-64,00
-2321,70	-39,00
-2311,64	-29,00
-2301,59	-17,00
-2291,55	-119,00
-2281,53	-141,00
-2271,53	-87,00
-2261,53	-172,00
-2251,55	28,00
-2241,59	-66,00
-2231,64	-9,00
-2221,70	-72,00
-2211,78	-96,00
-2201,87	-162,00
-2191,97	-76,00
-2182,09	-73,00
-2172,22	-64,00
-2162,37	-151,00
-2152,53	-69,00
-2142,70	-140,00
-2132,89	-71,00
-2123,09	-148,00
-2113,30	-108,00
-2103,53	-84,00
-2093,77	-118,00
-2084,02	-109,00
-2074,29	-109,00
-2064,57	-122,00
-2054,86	-139,00
-2045,17	-60,00
-2035,49	-107,00
-2025,82	-109,00
-2016,17	10,00
-2006,53	-82,00
-1996,91	-77,00
-1987,29	-112,00
-1977,69	-18,00
-1968,11	-11,00
-1958,53	-96,00
-1948,97	-36,00
-1939,42	-111,00
-1929,89	-67,00
-1920,37	-52,00
-1910,86	-67,00
-1901,36	-97,00
-1891,88	-78,00
-1882,41	-61,00
-1872,95	-102,00
-1863,51	44,00
-1854,08	-193,00
-1844,66	-30,00
-1835,26	-118,00
-1825,86	-50,00
-1816,48	-59,00
-1807,11	-120,00
-1797,76	-194,00
-1788,42	7,00
-1779,09	0,00
-1769,77	76,00
-1760,47	-167,00
-1751,17	-41,00
-1741,89	-52,00
-1732,63	-94,00
-1723,37	-16,00
-1714,13	-106,00
-1704,90	-139,00
-1695,68	-119,00
-1686,48	-74,00
-1677,29	-38,00
-1668,11	-142,00
-1658,94	-6,00
-1649,78	-211,00
-1640,64	-146,00
-1631,51	25,00
-1622,39	-156,00
-1613,28	-48,00
-1604,19	-28,00
-1595,10	-20,00
-1586,03	-137,00
-1576,97	6,00
-1567,93	-45,00
-1558,89	-46,00
-1549,87	-141,00
-1540,86	-81,00
-1531,86	-37,00
-1522,87	-121,00
-1513,90	-121,00
-1504,93	-85,00
-1495,98	-81,00
-1487,04	-142,00
-1478,12	61,00
-1469,20	-151,00
-1460,30	-37,00
-1451,40	-101,00
-1442,52	-42,00
-1433,65	-61,00
-1424,80	-70,00
-1415,95	-43,00
-1407,12	24,00
-1398,30	-159,00
-1389,48	-182,00
-1380,69	-180,00
-1371,90	-56,00
-1363,12	-199,00
-1354,36	-40,00
-1345,60	-134,00
-1336,86	-156,00
-1328,13	10,00
-1319,41	-35,00
-1310,70	-55,00
-1302,01	-89,00
-1293,32	-81,00
-1284,65	-182,00
-1275,99	-122,00
-1267,33	-119,00
-1258,69	32,00
-1250,06	-33,00
-1241,45	-66,00
-1232,84	-84,00
-1224,25	-53,00
-1215,66	-108,00
-1207,09	-65,00
-1198,53	-69,00
-1189,97	-149,00
-1181,43	-55,00
-1172,91	-33,00
-1164,39	-188,00
-1155,88	-93,00
-1147,38	30,00
-1138,90	-85,00
-1130,43	-168,00
-1121,96	-31,00
-1113,51	-90,00
-1105,07	-43,00
-1096,64	-156,00
-1088,22	-114,00
-1079,81	-18,00
-1071,41	-141,00
-1063,02	-125,00
-1054,65	-114,00
-1046,28	-41,00
-1037,92	-143,00
-1029,58	-57,00
-1021,24	-107,00
-1012,92	-81,00
-1004,61	-51,00
-996,30	9,00
-988,01	-57,00
-979,73	-29,00
-971,46	-151,00
-963,20	-244,00
-954,95	-35,00
-946,71	-104,00
-938,48	-105,00
-930,26	-140,00
-922,06	-1,00
-913,86	3,00
-905,67	-55,00
-897,49	-60,00
-889,33	-116,00
-881,17	-47,00
-873,02	-11,00
-864,89	-174,00
-856,76	-60,00
-848,65	-34,00
-840,54	-53,00
-832,45	-139,00
-824,36	-9,00
-816,29	-25,00
-808,22	-154,00
-800,17	-46,00
-792,12	35,00
-784,09	-40,00
-776,06	-136,00
-768,05	-122,00
-760,04	45,00
-752,05	-61,00
-744,07	-82,00
-736,09	-153,00
-728,13	-41,00
-720,17	-60,00
-712,23	-76,00
-704,29	-18,00
-696,37	-119,00
-688,45	-137,00
-680,55	-24,00
-672,65	-66,00
-664,77	-137,00
-656,89	-49,00
-649,03	-74,00
-641,17	-179,00
-633,32	-29,00
-625,49	-79,00
-617,66	-80,00
-609,84	-113,00
-602,03	-28,00
-594,23	-88,00
-586,45	-28,00
-578,67	-29,00
-570,90	16,00
-563,14	18,00
-555,39	-169,00
-547,65	-72,00
-539,91	-244,00
-532,19	-6,00
-524,48	-128,00
-516,78	-78,00
-509,08	-164,00
-501,40	-129,00
-493,72	-28,00
-486,06	16,00
-478,40	-154,00
-470,76	65,00
-463,12	-127,00
-455,49	-65,00
-447,87	-23,00
-440,26	-66,00
-432,66	-105,00
-425,07	-9,00
-417,49	-86,00
-409,92	-79,00
-402,35	-9,00
-394,80	37,00
-387,25	-121,00
-379,72	-20,00
-372,19	-27,00
-364,67	-8,00
-357,17	4,00
-349,67	3,00
-342,18	-35,00
-334,69	-28,00
-327,22	6,00
-319,76	41,00
-312,30	-21,00
-304,86	5,00
-297,42	69,00
-290,00	-35,00
-282,58	-1,00
-275,17	80,00
-267,77	25,00
-260,37	17,00
-252,99	-132,00
-245,62	61,00
-238,25	-65,00
-230,90	34,00
-223,55	-61,00
-216,21	111,00
-208,88	153,00
-201,56	73,00
-194,25	71,00
-186,94	248,00
-179,65	154,00
-172,36	177,00
-165,08	311,00
-157,81	251,00
-150,55	171,00
-143,30	369,00
-136,06	360,00
-128,82	560,00
-121,60	524,00
-114,38	616,00
-107,17	718,00
-99,97	687,00
-92,78	875,00
-85,60	870,00
-78,42	1245,00
-71,25	1425,00
-64,10	1663,00
-56,95	1978,00
-49,81	2333,00
-42,67	2951,00
-35,55	3673,00
-28,43	4817,00
-21,33	7796,00
-14,23	24960,00
-7,14	56043,00
-0,05	55763,00
7,02	55513,00
14,09	55717,00
21,14	26319,00
28,19	10643,00
35,23	6438,00
42,27	4787,00
49,29	3958,00
56,31	3246,00
63,32	2763,00
70,32	2198,00
77,31	1876,00
84,29	1613,00
91,27	1286,00
98,23	1349,00
105,19	1139,00
112,14	1170,00
119,09	1681,00
126,02	2591,00
132,95	3063,00
139,87	3065,00
146,78	2816,00
153,68	3069,00
160,58	2862,00
167,46	2887,00
174,34	2769,00
181,21	2833,00
188,08	2823,00
194,93	2709,00
201,78	2903,00
208,62	2770,00
215,45	2692,00
222,27	2802,00
229,09	2745,00
235,90	2707,00
242,70	2672,00
249,49	2672,00
256,27	2650,00
263,05	2516,00
269,82	2629,00
276,58	2560,00
283,33	2513,00
290,08	2578,00
296,82	2558,00
303,55	2513,00
310,27	2521,00
316,98	2453,00
323,69	2422,00
330,39	2431,00
337,08	2429,00
343,76	2436,00
350,44	2369,00
357,11	2307,00
363,77	2371,00
370,42	2419,00
377,07	2220,00
383,71	2295,00
390,34	2375,00
396,96	2384,00
403,58	2302,00
410,19	2294,00
416,79	2348,00
423,38	2476,00
429,97	2250,00
436,55	2088,00
443,12	2108,00
449,68	2157,00
456,24	2132,00
462,79	2208,00
469,33	2114,00
475,86	1968,00
482,39	2121,00
488,91	2121,00
495,42	1998,00
501,93	1931,00
508,42	1981,00
514,91	1981,00
521,40	1929,00
527,87	1905,00
534,34	1863,00
540,80	1829,00
547,25	1784,00
553,70	1973,00
560,14	1801,00
566,57	1902,00
573,00	1773,00
579,41	1845,00
585,83	1959,00
592,23	1889,00
598,62	1720,00
605,01	1703,00
611,40	1833,00
617,77	1811,00
624,14	1678,00
630,50	1728,00
636,85	1739,00
643,20	1683,00
649,54	1742,00
655,87	1771,00
662,20	1656,00
668,52	1635,00
674,83	1714,00
681,13	1661,00
687,43	1566,00
693,72	1627,00
700,00	1533,00
706,28	1672,00
712,55	1600,00
718,81	1560,00
725,07	1573,00
731,32	1601,00
737,56	1611,00
743,79	1652,00
750,02	1707,00
756,24	1582,00
762,46	1589,00
768,67	1481,00
774,87	1466,00
781,06	1664,00
787,25	1387,00
793,43	1511,00
799,60	1533,00
805,77	1529,00
811,93	1541,00
818,08	1438,00
824,23	1579,00
830,37	1562,00
836,50	1344,00
842,63	1558,00
848,75	1586,00
854,87	1464,00
860,97	1545,00
867,07	1454,00
873,17	1436,00
879,25	1358,00
885,33	1525,00
891,41	1394,00
897,47	1415,00
903,53	1354,00
909,59	1186,00
915,63	1397,00
921,67	1375,00
927,71	1324,00
933,74	1350,00
939,76	1260,00
945,77	1271,00
951,78	1383,00
957,78	1338,00
963,78	1327,00
969,77	1236,00
975,75	1277,00
981,72	1298,00
987,69	1433,00
993,66	1263,00
999,61	1306,00
1005,56	1230,00
1011,51	1377,00
1017,44	1245,00
1023,37	1191,00
1029,30	1185,00
1035,22	1359,00
1041,13	1157,00
1047,03	1348,00
1052,93	1313,00
1058,83	1527,00
1064,71	1676,00
1070,59	1510,00
1076,47	1260,00
1082,33	1201,00
1088,20	1226,00
1094,05	1213,00
1099,90	1212,00
1105,74	1199,00
1111,58	1264,00
1117,41	1341,00
1123,23	1348,00
1129,05	1656,00
1134,86	1497,00
1140,67	1218,00
1146,47	1218,00
1152,26	1134,00
1158,05	1110,00
1163,83	1195,00
1169,60	1146,00
1175,37	1014,00
1181,13	1122,00
1186,89	1179,00
1192,64	1147,00
1198,38	1075,00
1204,12	1118,00
1209,85	1136,00
1215,58	1038,00
1221,30	1193,00
1227,02	1019,00
1232,72	1180,00
1238,43	1326,00
1244,12	1192,00
1249,81	1147,00
1255,50	1127,00
1261,17	1128,00
1266,85	1184,00
1272,51	1183,00
1278,17	1152,00
1283,83	1363,00
1289,47	1495,00
1295,12	1639,00
1300,75	1680,00
1306,38	1406,00
1312,01	1303,00
1317,63	1147,00
1323,24	1253,00
1328,85	1202,00
1334,45	1310,00
1340,04	1182,00
1345,63	1303,00
1351,22	1304,00
1356,80	1258,00
1362,37	1344,00
1367,93	1341,00
1373,49	1276,00
1379,05	1333,00
1384,60	1316,00
1390,14	1241,00
1395,68	1326,00
1401,21	1327,00
1406,74	1356,00
1412,26	1442,00
1417,77	1559,00
1423,28	1556,00
1428,78	1632,00
1434,28	1617,00
1439,77	1759,00
1445,26	1542,00
1450,74	1588,00
1456,22	1503,00
1461,68	1462,00
1467,15	1481,00
1472,61	1335,00
1478,06	1252,00
1483,51	1197,00
1488,95	1204,00
1494,38	1177,00
1499,81	1126,00
1505,24	1141,00
1510,65	1071,00
1516,07	991,00
1521,48	966,00
1526,88	1069,00
1532,27	1070,00
1537,67	1011,00
1543,05	1115,00
1548,43	1028,00
1553,81	1031,00
1559,18	901,00
1564,54	1072,00
1569,90	1048,00
1575,25	958,00
1580,60	981,00
1585,94	1039,00
1591,28	925,00
1596,61	975,00
1601,93	1068,00
1607,25	905,00
1612,57	1019,00
1617,88	941,00
1623,18	1088,00
1628,48	991,00
1633,77	975,00
1639,06	993,00
1644,34	889,00
1649,62	936,00
1654,89	889,00
1660,16	931,00
1665,42	927,00
1670,67	869,00
1675,92	927,00
1681,17	1044,00
1686,41	883,00
1691,64	885,00
1696,87	922,00
1702,10	812,00
1707,32	864,00
1712,53	886,00
1717,74	664,00
1722,94	953,00
1728,14	714,00
1733,33	767,00
1738,52	761,00
1743,70	711,00
1748,88	792,00
1754,05	669,00
1759,22	866,00
1764,38	759,00
1769,53	712,00
1774,69	604,00
1779,83	641,00
1784,97	790,00
1790,11	777,00
1795,24	754,00
1800,36	690,00
1805,48	767,00
1810,60	678,00
1815,71	646,00
1820,82	632,00
1825,92	587,00
1831,01	638,00
1836,10	677,00
1841,19	608,00
1846,26	574,00
1851,34	592,00
1856,41	730,00
1861,47	633,00
1866,53	579,00
1871,59	620,00
1876,64	586,00
1881,68	640,00
1886,72	596,00
1891,76	609,00
1896,79	662,00
1901,81	557,00
1906,83	599,00
1911,85	632,00
1916,86	597,00
1921,86	641,00
1926,86	533,00
1931,86	545,00
1936,85	446,00
1941,83	472,00
1946,81	433,00
1951,79	585,00
1956,76	545,00
1961,72	482,00
1966,68	526,00
1971,64	468,00
1976,59	481,00
1981,54	409,00
1986,48	506,00
1991,42	490,00
1996,35	351,00
2001,27	493,00
2006,20	426,00
2011,11	456,00
2016,03	390,00
2020,93	426,00
2025,84	393,00
2030,73	500,00
2035,63	405,00
2040,52	341,00
2045,40	441,00
2050,28	411,00
2055,15	401,00
2060,02	422,00
2064,89	481,00
2069,75	402,00
2074,60	413,00
2079,46	298,00
2084,30	346,00
2089,14	386,00
2093,98	272,00
2098,81	415,00
2103,64	516,00
2108,46	355,00
2113,28	404,00
2118,09	386,00
2122,90	408,00
2127,70	470,00
2132,50	443,00
2137,30	272,00
2142,09	334,00
2146,87	424,00
2151,66	387,00
2156,43	171,00
2161,20	381,00
2165,97	353,00
2170,73	402,00
2175,49	304,00
2180,24	461,00
2184,99	328,00
2189,74	331,00
2194,48	313,00
2199,21	293,00
2203,94	271,00
2208,67	378,00
2213,39	272,00
2218,11	269,00
2222,82	352,00
2227,53	193,00
2232,23	275,00
2236,93	319,00
2241,63	275,00
2246,32	296,00
2251,00	243,00
2255,68	238,00
2260,36	238,00
2265,03	249,00
2269,70	250,00
2274,36	388,00
2279,02	346,00
2283,68	121,00
2288,33	358,00
2292,97	285,00
2297,61	252,00
2302,25	213,00
2306,88	264,00
2311,51	185,00
2316,14	279,00
2320,75	162,00
2325,37	213,00
2329,98	291,00
2334,59	199,00
2339,19	255,00
2343,79	143,00
2348,38	293,00
2352,97	140,00
2357,55	172,00
2362,13	157,00
2366,71	151,00
2371,28	286,00
2375,85	126,00
2380,41	209,00
2384,97	106,00
2389,52	252,00
2394,07	185,00
2398,62	195,00
2403,16	168,00
2407,70	186,00
2412,23	272,00
2416,76	185,00
2421,29	127,00
2425,81	88,00
2430,32	248,00
2434,84	190,00
2439,34	181,00
2443,85	215,00
2448,35	312,00
2452,84	165,00
2457,33	251,00
2461,82	266,00
2466,30	209,00
2470,78	119,00
2475,25	165,00
2479,72	143,00
2484,19	135,00
2488,65	184,00
2493,11	178,00
2497,56	247,00
2502,01	84,00
2506,46	99,00
2510,90	80,00
2515,34	159,00
2519,77	154,00
2524,20	99,00
2528,62	180,00
2533,04	51,00
2537,46	228,00
2541,87	139,00
2546,28	176,00
2550,68	169,00
2555,08	176,00
2559,48	111,00
2563,87	144,00
2568,26	133,00
2572,64	112,00
2577,02	151,00
2581,40	216,00
2585,77	75,00
2590,14	222,00
2594,50	163,00
2598,86	60,00
2603,22	79,00
2607,57	86,00
2611,92	29,00
2616,26	86,00
2620,60	134,00
2624,94	162,00
2629,27	58,00
2633,60	133,00
2637,92	120,00
2642,24	47,00
2646,56	50,00
2650,87	156,00
2655,18	129,00
2659,48	126,00
2663,78	72,00
2668,08	50,00
2672,37	186,00
2676,66	128,00
2680,95	266,00
2685,23	109,00
2689,50	143,00
2693,78	145,00
2698,05	195,00
2702,31	88,00
2706,57	186,00
2710,83	76,00
2715,08	163,00
2719,33	95,00
2723,58	113,00
2727,82	114,00
2732,06	122,00
2736,29	69,00
2740,53	165,00
2744,75	63,00
2748,97	259,00
2753,19	121,00
2757,41	142,00
2761,62	168,00
2765,83	128,00
2770,03	56,00
2774,23	36,00
2778,43	55,00
2782,62	123,00
2786,81	99,00
2791,00	114,00
2795,18	154,00
2799,35	46,00
2803,53	208,00
2807,70	266,00
2811,86	159,00
2816,03	212,00
2820,19	124,00
2824,34	186,00
2828,49	206,00
2832,64	216,00
2836,78	309,00
2840,92	380,00
2845,06	568,00
2849,19	686,00
2853,32	713,00
2857,45	589,00
2861,57	556,00
2865,69	511,00
2869,80	507,00
2873,91	586,00
2878,02	633,00
2882,12	648,00
2886,22	767,00
2890,32	639,00
2894,41	541,00
2898,50	498,00
2902,58	406,00
2906,67	559,00
2910,74	503,00
2914,82	380,00
2918,89	319,00
2922,96	440,00
2927,02	310,00
2931,08	349,00
2935,13	179,00
2939,19	298,00
2943,24	318,00
2947,28	233,00
2951,32	201,00
2955,36	162,00
2959,40	23,00
2963,43	212,00
2967,46	-5,00
2971,48	144,00
2975,50	213,00
2979,52	121,00
2983,53	178,00
2987,54	-5,00
2991,55	-17,00
2995,55	92,00
2999,55	-1,00
3003,54	55,00
3007,54	-51,00
3011,53	-52,00
3015,51	-78,00
3019,49	122,00
3023,47	-63,00
3027,45	-4,00
3031,42	74,00
3035,39	70,00
3039,35	83,00
3043,31	-30,00
3047,27	23,00
3051,22	-55,00
3055,17	29,00
3059,12	43,00
3063,06	31,00
3067,00	143,00
3070,94	-21,00
3074,87	34,00
3078,80	-96,00
3082,73	-14,00
3086,65	20,00
3090,57	-88,00
3094,49	30,00
3098,40	34,00
3102,31	-34,00
3106,22	3,00
3110,12	-44,00
3114,02	-56,00
3117,92	-126,00
3121,81	0,00
3125,70	45,00
3129,58	-14,00
3133,47	36,00
3137,34	-46,00
3141,22	-48,00
3145,09	-70,00
3148,96	-45,00
3152,83	42,00
3156,69	-55,00
3160,55	50,00
3164,40	-77,00
3168,26	45,00
3172,10	60,00
3175,95	-13,00
3179,79	-1,00
3183,63	53,00
3187,47	26,00
3191,30	-164,00
3195,13	-70,00
3198,95	-49,00
3202,78	-12,00
3206,60	-23,00
3210,41	34,00
3214,23	38,00
3218,03	-4,00
3221,84	-55,00
3225,64	-20,00
3229,44	-128,00
3233,24	-16,00
3237,03	-52,00
3240,82	-11,00
3244,61	-7,00
3248,39	54,00
3252,17	17,00
3255,95	-107,00
3259,72	31,00
3263,49	-117,00
3267,26	-29,00
3271,03	106,00
3274,79	-54,00
3278,54	53,00
3282,30	-3,00
3286,05	50,00
3289,80	-68,00
3293,54	54,00
3297,29	-52,00
3301,02	-18,00
3304,76	-19,00
3308,49	-3,00
3312,22	31,00
3315,95	28,00
3319,67	-59,00
3323,39	55,00
3327,10	-66,00
3330,82	79,00
3334,53	-25,00
3338,24	-77,00
3341,94	64,00
3345,64	-125,00
3349,34	-26,00
3353,03	-68,00
3356,72	54,00
3360,41	-7,00
3364,10	-37,00
3367,78	-43,00
3371,46	-91,00
3375,13	-26,00
3378,81	69,00
3382,48	-34,00
3386,14	-20,00
3389,81	-29,00
3393,47	-87,00
3397,12	10,00
3400,78	-69,00
3404,43	53,00
3408,08	-53,00
3411,72	83,00
3415,36	-18,00
3419,00	-3,00
3422,64	69,00
3426,27	15,00
3429,90	5,00
3433,53	-35,00
3437,15	-167,00
3440,77	-49,00
3444,39	-59,00
3448,00	-28,00
3451,62	-134,00
3455,22	-22,00
3458,83	-74,00
3462,43	-94,00
3466,03	-17,00
3469,63	-38,00
3473,22	-3,00
3476,81	-30,00
3480,40	-42,00
3483,99	-46,00
3487,57	-23,00
3491,15	-28,00
3494,72	-31,00
3498,29	-69,00
3501,86	-45,00
3505,43	-133,00
3508,99	-126,00
3512,56	-69,00
3516,11	-34,00
3519,67	-193,00
3523,22	-135,00
3526,77	-121,00
3530,32	-66,00
3533,86	31,00
3537,40	-99,00
3540,94	-104,00
3544,47	-118,00
3548,00	-115,00
3551,53	-97,00
3555,06	-163,00
3558,58	-3,00
3562,10	-16,00
3565,62	-45,00
3569,13	-74,00
3572,64	-66,00
3576,15	76,00
3579,66	-160,00
3583,16	-5,00
3586,66	-61,00
3590,16	-98,00
3593,65	-91,00
3597,14	-70,00
3600,63	6,00
3604,11	-118,00
3607,60	-50,00
3611,08	-90,00
3614,55	79,00
3618,03	-71,00
3621,50	-166,00
3624,97	-68,00
3628,43	-153,00
3631,90	-100,00
3635,36	-56,00
3638,81	-90,00
3642,27	-62,00
3645,72	-64,00
3649,17	-80,00
3652,61	-82,00
3656,06	-90,00
3659,50	-108,00
3662,93	-155,00
3666,37	0,00
3669,80	-82,00
3673,23	18,00
3676,65	-88,00
3680,08	-58,00
3683,50	-92,00
3686,92	-85,00
3690,33	-108,00
3693,74	0,00
3697,15	-92,00
3700,56	-60,00
3703,96	-74,00
3707,36	-152,00
3710,76	-20,00
3714,16	26,00
3717,55	-54,00
3720,94	-50,00
3724,33	-70,00
3727,71	-155,00
3731,10	-109,00
3734,48	16,00
3737,85	-97,00
3741,23	-66,00
3744,60	-73,00
3747,97	-10,00
3751,33	-34,00
3754,69	-86,00
3758,05	-94,00
3761,41	16,00
3764,77	-69,00
3768,12	-107,00
3771,47	-80,00
3774,82	-49,00
3778,16	0,00
3781,50	0,00
3784,84	2,00
3788,18	1,00
>>>>>End Processed Spectral Data<<<<<
