SpectraSuite Data File
++++++++++++++++++++++++++++++++++++
Date: Wed Feb 11 16:46:47 ICT 2026
User: Administrator
Dark Spectrum Present: Yes
Reference Spectrum Present: No
Number of Sampled Component Spectra: 1
Spectrometers: MAYP113682
Integration Time (usec): 3000000 (MAYP113682)
Spectra Averaged: 1 (MAYP113682)
Boxcar Smoothing: 0 (MAYP113682)
Correct for Electrical Dark: No (MAYP113682)
Strobe/Lamp Enabled: No (MAYP113682)
Correct for Detector Non-linearity: No (MAYP113682)
Correct for Stray Light: No (MAYP113682)
Number of Pixels in Processed Spectrum: 2068
>>>>>Begin Processed Spectral Data<<<<<
-37534,58	-1,00
-37414,56	1,00
-37295,11	3,00
-37176,24	5,00
-37057,95	-37,00
-36940,22	-115,00
-36823,05	-67,00
-36706,45	-52,00
-36590,40	-41,00
-36474,90	-65,00
-36359,95	-109,00
-36245,55	-21,00
-36131,68	-104,00
-36018,35	-102,00
-35905,55	-8,00
-35793,29	-45,00
-35681,54	-54,00
-35570,32	-72,00
-35459,62	-52,00
-35349,43	-4,00
-35239,75	-36,00
-35130,58	-15,00
-35021,91	-115,00
-34913,74	-113,00
-34806,07	-87,00
-34698,89	-63,00
-34592,20	-38,00
-34486,00	-41,00
-34380,28	-34,00
-34275,04	-140,00
-34170,27	-124,00
-34065,98	-173,00
-33962,16	-146,00
-33858,81	-31,00
-33755,92	-77,00
-33653,49	-298,00
-33551,52	-119,00
-33450,01	-214,00
-33348,94	-47,00
-33248,33	-155,00
-33148,16	-61,00
-33048,43	-62,00
-32949,14	-67,00
-32850,29	-124,00
-32751,87	-78,00
-32653,89	-112,00
-32556,33	-170,00
-32459,20	-63,00
-32362,49	-23,00
-32266,19	-120,00
-32170,32	-140,00
-32074,86	-88,00
-31979,82	-113,00
-31885,18	-55,00
-31790,95	-10,00
-31697,12	-112,00
-31603,69	-128,00
-31510,67	-110,00
-31418,04	-33,00
-31325,80	-42,00
-31233,95	22,00
-31142,49	-2,00
-31051,42	-227,00
-30960,73	-32,00
-30870,43	-126,00
-30780,50	-64,00
-30690,95	-119,00
-30601,77	-17,00
-30512,97	-112,00
-30424,53	-101,00
-30336,46	-82,00
-30248,76	25,00
-30161,42	-160,00
-30074,44	-75,00
-29987,81	-158,00
-29901,55	-115,00
-29815,63	-3,00
-29730,07	-54,00
-29644,86	-58,00
-29560,00	-62,00
-29475,48	-55,00
-29391,30	-150,00
-29307,47	-74,00
-29223,97	-72,00
-29140,81	-159,00
-29057,99	-75,00
-28975,50	-129,00
-28893,34	-148,00
-28811,51	-89,00
-28730,00	-41,00
-28648,82	46,00
-28567,97	-52,00
-28487,43	-124,00
-28407,21	-111,00
-28327,32	-244,00
-28247,73	-103,00
-28168,46	-1,00
-28089,50	-42,00
-28010,85	-97,00
-27932,51	-45,00
-27854,48	-131,00
-27776,75	-71,00
-27699,32	-75,00
-27622,19	-101,00
-27545,37	-128,00
-27468,84	-157,00
-27392,60	-104,00
-27316,66	-125,00
-27241,01	-103,00
-27165,66	-63,00
-27090,59	-147,00
-27015,81	-71,00
-26941,31	-86,00
-26867,10	6,00
-26793,17	-24,00
-26719,52	-116,00
-26646,15	-134,00
-26573,06	-77,00
-26500,24	-57,00
-26427,70	-113,00
-26355,43	-106,00
-26283,43	-58,00
-26211,71	-143,00
-26140,25	-106,00
-26069,06	-109,00
-25998,13	-73,00
-25927,46	-124,00
-25857,06	-168,00
-25786,92	-14,00
-25717,04	-64,00
-25647,42	-99,00
-25578,05	-54,00
-25508,94	-120,00
-25440,09	-77,00
-25371,48	-103,00
-25303,13	-21,00
-25235,02	-28,00
-25167,17	-44,00
-25099,56	-155,00
-25032,19	-19,00
-24965,07	-132,00
-24898,20	-37,00
-24831,56	-113,00
-24765,17	-83,00
-24699,01	-32,00
-24633,10	-77,00
-24567,41	-117,00
-24501,97	-202,00
-24436,75	-44,00
-24371,77	-108,00
-24307,03	-113,00
-24242,51	-94,00
-24178,22	-152,00
-24114,16	-54,00
-24050,32	-16,00
-23986,71	-40,00
-23923,32	-148,00
-23860,16	-132,00
-23797,22	-72,00
-23734,50	3,00
-23672,00	-78,00
-23609,71	-179,00
-23547,65	-53,00
-23485,80	-63,00
-23424,16	-156,00
-23362,74	-120,00
-23301,53	-235,00
-23240,54	-41,00
-23179,75	-61,00
-23119,17	-87,00
-23058,80	-48,00
-22998,64	-4,00
-22938,68	-10,00
-22878,93	-80,00
-22819,39	-137,00
-22760,04	-89,00
-22700,90	-146,00
-22641,96	-57,00
-22583,22	-147,00
-22524,68	-159,00
-22466,33	-151,00
-22408,19	-150,00
-22350,23	-158,00
-22292,48	11,00
-22234,92	-99,00
-22177,55	-205,00
-22120,37	-160,00
-22063,38	-83,00
-22006,58	-72,00
-21949,98	-89,00
-21893,56	-54,00
-21837,33	-104,00
-21781,28	-77,00
-21725,42	-116,00
-21669,74	-68,00
-21614,25	-24,00
-21558,94	-181,00
-21503,81	0,00
-21448,86	-180,00
-21394,10	-34,00
-21339,51	-83,00
-21285,10	-60,00
-21230,86	-105,00
-21176,81	-49,00
-21122,93	39,00
-21069,22	-100,00
-21015,69	-92,00
-20962,33	-116,00
-20909,14	-80,00
-20856,13	-49,00
-20803,28	-85,00
-20750,61	29,00
-20698,10	-158,00
-20645,76	-88,00
-20593,59	-14,00
-20541,59	-11,00
-20489,75	-23,00
-20438,07	-89,00
-20386,56	-31,00
-20335,22	-72,00
-20284,03	-64,00
-20233,01	5,00
-20182,15	-245,00
-20131,45	-115,00
-20080,91	-128,00
-20030,52	-79,00
-19980,30	-93,00
-19930,23	-128,00
-19880,32	-62,00
-19830,56	-104,00
-19780,96	-105,00
-19731,52	-131,00
-19682,23	84,00
-19633,09	-223,00
-19584,10	-181,00
-19535,26	14,00
-19486,58	4,00
-19438,04	14,00
-19389,66	-143,00
-19341,42	-54,00
-19293,33	-210,00
-19245,39	-42,00
-19197,60	-140,00
-19149,95	-141,00
-19102,45	-19,00
-19055,09	-60,00
-19007,87	-117,00
-18960,80	-58,00
-18913,87	-12,00
-18867,09	-130,00
-18820,44	-35,00
-18773,94	-115,00
-18727,57	-130,00
-18681,35	-48,00
-18635,26	0,00
-18589,31	-121,00
-18543,50	-73,00
-18497,83	-107,00
-18452,29	-143,00
-18406,89	-136,00
-18361,63	-38,00
-18316,50	-108,00
-18271,50	-163,00
-18226,63	-187,00
-18181,90	-100,00
-18137,30	-51,00
-18092,84	-72,00
-18048,50	-73,00
-18004,29	-42,00
-17960,22	-12,00
-17916,27	-113,00
-17872,45	-82,00
-17828,76	-84,00
-17785,20	-67,00
-17741,77	-7,00
-17698,46	-73,00
-17655,28	-177,00
-17612,22	-97,00
-17569,29	-116,00
-17526,48	-12,00
-17483,79	-22,00
-17441,23	-133,00
-17398,79	-83,00
-17356,48	-43,00
-17314,28	-124,00
-17272,21	7,00
-17230,26	-194,00
-17188,42	-112,00
-17146,71	-62,00
-17105,12	-42,00
-17063,64	-91,00
-17022,28	-120,00
-16981,04	-31,00
-16939,92	-178,00
-16898,91	-87,00
-16858,02	-146,00
-16817,25	-215,00
-16776,59	-31,00
-16736,04	-130,00
-16695,61	-125,00
-16655,29	-188,00
-16615,09	-90,00
-16574,99	55,00
-16535,01	-124,00
-16495,15	-127,00
-16455,39	-44,00
-16415,74	-120,00
-16376,21	-155,00
-16336,78	-139,00
-16297,46	-59,00
-16258,26	-29,00
-16219,16	-50,00
-16180,17	-85,00
-16141,28	-100,00
-16102,51	-120,00
-16063,84	-101,00
-16025,27	-66,00
-15986,82	-73,00
-15948,46	-52,00
-15910,22	-116,00
-15872,07	13,00
-15834,04	-168,00
-15796,10	22,00
-15758,27	-76,00
-15720,54	-91,00
-15682,91	-136,00
-15645,39	-145,00
-15607,97	12,00
-15570,64	-44,00
-15533,42	-91,00
-15496,30	-257,00
-15459,28	-118,00
-15422,36	-84,00
-15385,54	-158,00
-15348,82	33,00
-15312,19	-168,00
-15275,66	-64,00
-15239,23	-98,00
-15202,90	-129,00
-15166,67	-87,00
-15130,53	-187,00
-15094,48	-8,00
-15058,54	-80,00
-15022,68	-55,00
-14986,93	-99,00
-14951,26	-93,00
-14915,69	-209,00
-14880,22	-26,00
-14844,84	-118,00
-14809,55	-141,00
-14774,35	-101,00
-14739,25	-223,00
-14704,24	-183,00
-14669,32	-122,00
-14634,49	-85,00
-14599,75	-156,00
-14565,10	-151,00
-14530,55	-143,00
-14496,08	-196,00
-14461,70	-147,00
-14427,41	-69,00
-14393,21	-160,00
-14359,10	-114,00
-14325,07	-142,00
-14291,14	-182,00
-14257,29	-91,00
-14223,52	-134,00
-14189,85	-197,00
-14156,26	-29,00
-14122,76	-101,00
-14089,34	-171,00
-14056,01	-232,00
-14022,76	-180,00
-13989,60	-72,00
-13956,52	-80,00
-13923,53	-97,00
-13890,62	-72,00
-13857,79	-140,00
-13825,05	-200,00
-13792,39	-72,00
-13759,81	-96,00
-13727,31	-32,00
-13694,90	-84,00
-13662,57	-70,00
-13630,31	-99,00
-13598,14	-11,00
-13566,05	-25,00
-13534,05	-77,00
-13502,12	-32,00
-13470,27	-25,00
-13438,50	-97,00
-13406,80	39,00
-13375,19	-84,00
-13343,66	-39,00
-13312,20	-9,00
-13280,83	-150,00
-13249,53	17,00
-13218,30	-113,00
-13187,16	-93,00
-13156,09	-138,00
-13125,10	-70,00
-13094,18	-65,00
-13063,34	-40,00
-13032,58	-16,00
-13001,89	-37,00
-12971,28	-131,00
-12940,74	-111,00
-12910,27	-107,00
-12879,88	-154,00
-12849,57	-44,00
-12819,33	-125,00
-12789,16	-18,00
-12759,06	-85,00
-12729,04	-161,00
-12699,09	-334,00
-12669,21	-73,00
-12639,41	-12,00
-12609,68	-102,00
-12580,02	-112,00
-12550,43	-181,00
-12520,91	-124,00
-12491,46	-90,00
-12462,08	-81,00
-12432,77	-204,00
-12403,54	-109,00
-12374,37	-119,00
-12345,27	-213,00
-12316,24	-126,00
-12287,29	-79,00
-12258,40	-7,00
-12229,57	-77,00
-12200,82	-124,00
-12172,14	-107,00
-12143,52	-31,00
-12114,97	-107,00
-12086,49	-30,00
-12058,07	-122,00
-12029,73	-36,00
-12001,44	-74,00
-11973,23	-42,00
-11945,08	-121,00
-11917,00	-38,00
-11888,98	-79,00
-11861,03	-202,00
-11833,15	-117,00
-11805,32	-123,00
-11777,57	-102,00
-11749,88	-22,00
-11722,25	-126,00
-11694,69	-57,00
-11667,19	-148,00
-11639,75	-25,00
-11612,38	-80,00
-11585,07	-139,00
-11557,83	-77,00
-11530,65	-274,00
-11503,53	-107,00
-11476,47	-54,00
-11449,48	-120,00
-11422,54	-137,00
-11395,67	-110,00
-11368,86	-30,00
-11342,11	-162,00
-11315,43	-102,00
-11288,80	-65,00
-11262,23	-116,00
-11235,73	-153,00
-11209,28	-92,00
-11182,90	-72,00
-11156,57	-85,00
-11130,31	-122,00
-11104,10	-59,00
-11077,96	-44,00
-11051,87	-92,00
-11025,84	-63,00
-10999,87	-81,00
-10973,96	-209,00
-10948,11	-63,00
-10922,31	-14,00
-10896,58	-66,00
-10870,90	-121,00
-10845,28	-58,00
-10819,71	-73,00
-10794,20	-108,00
-10768,75	-130,00
-10743,36	-107,00
-10718,02	-87,00
-10692,74	-100,00
-10667,52	-73,00
-10642,35	-38,00
-10617,24	-31,00
-10592,18	-92,00
-10567,18	-122,00
-10542,23	-21,00
-10517,34	-107,00
-10492,51	-127,00
-10467,72	-20,00
-10443,00	-82,00
-10418,32	-33,00
-10393,70	13,00
-10369,14	-59,00
-10344,63	-49,00
-10320,17	-29,00
-10295,77	-53,00
-10271,42	-99,00
-10247,12	-25,00
-10222,88	22,00
-10198,68	-4,00
-10174,54	46,00
-10150,46	-78,00
-10126,42	12,00
-10102,44	6,00
-10078,51	-26,00
-10054,63	-17,00
-10030,80	48,00
-10007,03	71,00
-9983,30	12,00
-9959,63	165,00
-9936,01	-60,00
-9912,44	125,00
-9888,92	47,00
-9865,44	15,00
-9842,02	107,00
-9818,65	127,00
-9795,33	150,00
-9772,06	99,00
-9748,84	-5,00
-9725,67	32,00
-9702,55	164,00
-9679,47	290,00
-9656,45	223,00
-9633,47	169,00
-9610,55	241,00
-9587,67	341,00
-9564,84	369,00
-9542,06	462,00
-9519,32	504,00
-9496,64	475,00
-9474,00	642,00
-9451,41	611,00
-9428,87	625,00
-9406,37	552,00
-9383,92	522,00
-9361,52	557,00
-9339,17	444,00
-9316,86	702,00
-9294,60	809,00
-9272,38	968,00
-9250,21	1084,00
-9228,09	1230,00
-9206,01	1228,00
-9183,98	974,00
-9162,00	877,00
-9140,06	854,00
-9118,16	762,00
-9096,31	849,00
-9074,51	990,00
-9052,75	1073,00
-9031,04	930,00
-9009,37	835,00
-8987,74	560,00
-8966,16	443,00
-8944,63	441,00
-8923,14	421,00
-8901,69	528,00
-8880,29	559,00
-8858,93	698,00
-8837,61	896,00
-8816,34	927,00
-8795,11	1032,00
-8773,92	857,00
-8752,78	705,00
-8731,68	674,00
-8710,62	740,00
-8689,61	819,00
-8668,63	786,00
-8647,70	912,00
-8626,82	946,00
-8605,97	918,00
-8585,17	734,00
-8564,41	693,00
-8543,69	635,00
-8523,01	605,00
-8502,37	602,00
-8481,78	686,00
-8461,23	891,00
-8440,71	723,00
-8420,24	1064,00
-8399,81	952,00
-8379,42	1086,00
-8359,08	771,00
-8338,77	709,00
-8318,50	749,00
-8298,27	689,00
-8278,09	741,00
-8257,94	827,00
-8237,83	938,00
-8217,76	928,00
-8197,74	1059,00
-8177,75	982,00
-8157,80	862,00
-8137,89	787,00
-8118,02	605,00
-8098,19	763,00
-8078,40	839,00
-8058,65	715,00
-8038,93	809,00
-8019,26	757,00
-7999,62	799,00
-7980,02	659,00
-7960,46	599,00
-7940,94	659,00
-7921,46	548,00
-7902,01	667,00
-7882,60	476,00
-7863,23	505,00
-7843,90	657,00
-7824,61	611,00
-7805,35	682,00
-7786,13	641,00
-7766,95	754,00
-7747,80	610,00
-7728,69	583,00
-7709,62	604,00
-7690,59	685,00
-7671,59	762,00
-7652,63	820,00
-7633,70	763,00
-7614,81	736,00
-7595,96	649,00
-7577,15	580,00
-7558,37	668,00
-7539,62	574,00
-7520,91	631,00
-7502,24	753,00
-7483,60	708,00
-7465,00	674,00
-7446,44	571,00
-7427,91	609,00
-7409,41	193,00
-7390,95	367,00
-7372,53	318,00
-7354,14	192,00
-7335,78	214,00
-7317,46	332,00
-7299,18	405,00
-7280,92	452,00
-7262,71	591,00
-7244,52	729,00
-7226,38	680,00
-7208,26	790,00
-7190,18	626,00
-7172,14	499,00
-7154,12	469,00
-7136,15	594,00
-7118,20	600,00
-7100,29	601,00
-7082,41	544,00
-7064,57	655,00
-7046,76	382,00
-7028,98	450,00
-7011,24	289,00
-6993,53	312,00
-6975,85	145,00
-6958,20	104,00
-6940,59	108,00
-6923,01	194,00
-6905,46	368,00
-6887,94	349,00
-6870,46	2942,00
-6853,01	545,00
-6835,59	502,00
-6818,21	411,00
-6800,85	329,00
-6783,53	182,00
-6766,24	35,00
-6748,98	-26,00
-6731,76	77,00
-6714,56	-22,00
-6697,40	36,00
-6680,26	33,00
-6663,16	109,00
-6646,09	247,00
-6629,05	316,00
-6612,05	395,00
-6595,07	388,00
-6578,13	346,00
-6561,21	249,00
-6544,33	113,00
-6527,47	-31,00
-6510,65	138,00
-6493,86	-67,00
-6477,10	-94,00
-6460,36	-14,00
-6443,66	23,00
-6426,99	-52,00
-6410,35	67,00
-6393,74	47,00
-6377,16	171,00
-6360,61	133,00
-6344,09	237,00
-6327,59	214,00
-6311,13	184,00
-6294,70	255,00
-6278,29	212,00
-6261,92	393,00
-6245,58	249,00
-6229,26	402,00
-6212,97	283,00
-6196,72	208,00
-6180,49	94,00
-6164,29	-66,00
-6148,12	-33,00
-6131,98	-62,00
-6115,86	-34,00
-6099,78	-210,00
-6083,72	-114,00
-6067,69	-211,00
-6051,69	-73,00
-6035,72	-177,00
-6019,78	50,00
-6003,87	-7,00
-5987,98	68,00
-5972,12	220,00
-5956,29	225,00
-5940,49	132,00
-5924,71	122,00
-5908,96	-33,00
-5893,24	-100,00
-5877,55	-4,00
-5861,89	-135,00
-5846,25	-3,00
-5830,64	-117,00
-5815,05	-147,00
-5799,50	-22,00
-5783,97	-11,00
-5768,47	103,00
-5752,99	85,00
-5737,55	136,00
-5722,12	145,00
-5706,73	215,00
-5691,36	158,00
-5676,02	17,00
-5660,71	-27,00
-5645,42	4,00
-5630,16	-173,00
-5614,92	-50,00
-5599,71	16,00
-5584,53	33,00
-5569,37	57,00
-5554,24	-40,00
-5539,14	91,00
-5524,06	105,00
-5509,01	36,00
-5493,98	152,00
-5478,98	62,00
-5464,00	-74,00
-5449,05	136,00
-5434,13	-35,00
-5419,23	-44,00
-5404,36	42,00
-5389,51	7,00
-5374,69	156,00
-5359,89	163,00
-5345,12	312,00
-5330,37	216,00
-5315,65	268,00
-5300,95	116,00
-5286,28	68,00
-5271,63	-39,00
-5257,01	-39,00
-5242,41	-148,00
-5227,84	-126,00
-5213,29	41,00
-5198,76	-163,00
-5184,26	-68,00
-5169,79	-63,00
-5155,33	-49,00
-5140,91	-51,00
-5126,51	85,00
-5112,13	165,00
-5097,77	46,00
-5083,44	-88,00
-5069,13	-43,00
-5054,85	-73,00
-5040,59	33,00
-5026,36	-69,00
-5012,15	69,00
-4997,96	47,00
-4983,80	78,00
-4969,66	43,00
-4955,54	-87,00
-4941,44	24,00
-4927,37	163,00
-4913,33	303,00
-4899,30	315,00
-4885,30	284,00
-4871,33	109,00
-4857,37	19,00
-4843,44	-22,00
-4829,53	-71,00
-4815,65	63,00
-4801,79	-22,00
-4787,95	-77,00
-4774,13	-81,00
-4760,34	-138,00
-4746,56	-236,00
-4732,82	9,00
-4719,09	-18,00
-4705,38	146,00
-4691,70	231,00
-4678,04	198,00
-4664,41	43,00
-4650,79	20,00
-4637,20	-18,00
-4623,63	-17,00
-4610,08	-15,00
-4596,56	77,00
-4583,05	72,00
-4569,57	3,00
-4556,11	-18,00
-4542,67	-13,00
-4529,25	-62,00
-4515,86	91,00
-4502,49	107,00
-4489,13	176,00
-4475,80	65,00
-4462,49	50,00
-4449,21	71,00
-4435,94	-12,00
-4422,70	-14,00
-4409,47	141,00
-4396,27	-21,00
-4383,09	-39,00
-4369,93	20,00
-4356,79	-123,00
-4343,67	-10,00
-4330,58	-47,00
-4317,50	-59,00
-4304,45	22,00
-4291,41	-74,00
-4278,40	-6,00
-4265,41	-79,00
-4252,44	139,00
-4239,49	124,00
-4226,55	43,00
-4213,65	72,00
-4200,76	-15,00
-4187,89	-46,00
-4175,04	39,00
-4162,21	-161,00
-4149,40	-72,00
-4136,61	-44,00
-4123,85	-26,00
-4111,10	-144,00
-4098,37	-109,00
-4085,66	-29,00
-4072,98	-81,00
-4060,31	-5,00
-4047,66	-153,00
-4035,04	-105,00
-4022,43	-77,00
-4009,84	-112,00
-3997,27	-106,00
-3984,72	-11,00
-3972,19	-71,00
-3959,69	-171,00
-3947,20	-7,00
-3934,73	-25,00
-3922,27	-58,00
-3909,84	-103,00
-3897,43	-33,00
-3885,04	46,00
-3872,67	-107,00
-3860,31	2,00
-3847,98	-2,00
-3835,66	-13,00
-3823,36	-132,00
-3811,09	-92,00
-3798,83	-17,00
-3786,59	-128,00
-3774,37	-194,00
-3762,17	-6,00
-3749,98	-117,00
-3737,82	-24,00
-3725,67	-197,00
-3713,55	-63,00
-3701,44	-51,00
-3689,35	-107,00
-3677,28	-88,00
-3665,22	-79,00
-3653,19	-201,00
-3641,17	-146,00
-3629,18	-62,00
-3617,20	-62,00
-3605,24	-69,00
-3593,30	-111,00
-3581,37	-154,00
-3569,47	-95,00
-3557,58	-151,00
-3545,71	-215,00
-3533,86	68,00
-3522,02	-87,00
-3510,21	-117,00
-3498,41	-195,00
-3486,63	-85,00
-3474,87	-94,00
-3463,12	-30,00
-3451,40	-187,00
-3439,69	-121,00
-3428,00	-54,00
-3416,33	-84,00
-3404,67	-109,00
-3393,03	-111,00
-3381,41	-138,00
-3369,81	-148,00
-3358,22	-176,00
-3346,66	22,00
-3335,10	-65,00
-3323,57	-31,00
-3312,06	-86,00
-3300,56	-112,00
-3289,08	-79,00
-3277,61	-224,00
-3266,16	-135,00
-3254,73	-15,00
-3243,32	-124,00
-3231,92	-88,00
-3220,55	-118,00
-3209,18	-23,00
-3197,84	-119,00
-3186,51	-184,00
-3175,20	-206,00
-3163,90	-131,00
-3152,63	-82,00
-3141,36	-109,00
-3130,12	-176,00
-3118,89	56,00
-3107,68	-109,00
-3096,49	-161,00
-3085,31	-61,00
-3074,15	-96,00
-3063,00	-36,00
-3051,87	-90,00
-3040,76	-94,00
-3029,67	-167,00
-3018,59	-186,00
-3007,52	-118,00
-2996,48	-138,00
-2985,44	-89,00
-2974,43	-53,00
-2963,43	-64,00
-2952,45	-132,00
-2941,48	29,00
-2930,53	-28,00
-2919,60	-46,00
-2908,68	-161,00
-2897,78	-86,00
-2886,89	-45,00
-2876,02	-151,00
-2865,17	-119,00
-2854,33	-76,00
-2843,50	-177,00
-2832,70	-116,00
-2821,90	-85,00
-2811,13	-107,00
-2800,37	-80,00
-2789,62	15,00
-2778,89	11,00
-2768,18	-85,00
-2757,48	-63,00
-2746,80	-66,00
-2736,13	-65,00
-2725,48	-60,00
-2714,84	-199,00
-2704,22	-124,00
-2693,61	-41,00
-2683,02	-122,00
-2672,45	-51,00
-2661,89	-199,00
-2651,34	7,00
-2640,81	-143,00
-2630,30	-26,00
-2619,80	-13,00
-2609,31	-183,00
-2598,84	-108,00
-2588,39	-72,00
-2577,95	-121,00
-2567,52	-78,00
-2557,11	-157,00
-2546,71	-195,00
-2536,33	-37,00
-2525,97	-143,00
-2515,62	-70,00
-2505,28	8,00
-2494,96	-167,00
-2484,65	-154,00
-2474,36	-64,00
-2464,08	-10,00
-2453,82	-74,00
-2443,57	-142,00
-2433,33	15,00
-2423,11	-169,00
-2412,91	-4,00
-2402,72	-149,00
-2392,54	-146,00
-2382,38	-16,00
-2372,23	-149,00
-2362,09	-387,00
-2351,97	-98,00
-2341,87	-25,00
-2331,78	-85,00
-2321,70	-32,00
-2311,64	-78,00
-2301,59	-58,00
-2291,55	-52,00
-2281,53	-97,00
-2271,53	-51,00
-2261,53	-199,00
-2251,55	-70,00
-2241,59	-231,00
-2231,64	69,00
-2221,70	-59,00
-2211,78	-106,00
-2201,87	-143,00
-2191,97	-129,00
-2182,09	-52,00
-2172,22	-57,00
-2162,37	-224,00
-2152,53	17,00
-2142,70	-86,00
-2132,89	-37,00
-2123,09	-136,00
-2113,30	5,00
-2103,53	-127,00
-2093,77	-101,00
-2084,02	-123,00
-2074,29	-171,00
-2064,57	-118,00
-2054,86	-11,00
-2045,17	-191,00
-2035,49	-117,00
-2025,82	-104,00
-2016,17	-51,00
-2006,53	-119,00
-1996,91	-81,00
-1987,29	-171,00
-1977,69	-62,00
-1968,11	-110,00
-1958,53	-70,00
-1948,97	-58,00
-1939,42	-116,00
-1929,89	-135,00
-1920,37	-75,00
-1910,86	-101,00
-1901,36	-108,00
-1891,88	-107,00
-1882,41	-123,00
-1872,95	-44,00
-1863,51	92,00
-1854,08	-151,00
-1844,66	11,00
-1835,26	-69,00
-1825,86	-111,00
-1816,48	-80,00
-1807,11	-13,00
-1797,76	-200,00
-1788,42	-2,00
-1779,09	-100,00
-1769,77	67,00
-1760,47	-87,00
-1751,17	-94,00
-1741,89	-51,00
-1732,63	-215,00
-1723,37	-2,00
-1714,13	-80,00
-1704,90	-95,00
-1695,68	-103,00
-1686,48	-148,00
-1677,29	-73,00
-1668,11	-87,00
-1658,94	-56,00
-1649,78	-144,00
-1640,64	-201,00
-1631,51	-40,00
-1622,39	-117,00
-1613,28	-23,00
-1604,19	-112,00
-1595,10	39,00
-1586,03	-168,00
-1576,97	3,00
-1567,93	-106,00
-1558,89	-104,00
-1549,87	-130,00
-1540,86	-204,00
-1531,86	-60,00
-1522,87	-105,00
-1513,90	-104,00
-1504,93	-126,00
-1495,98	-163,00
-1487,04	-42,00
-1478,12	3,00
-1469,20	-192,00
-1460,30	-99,00
-1451,40	-140,00
-1442,52	-23,00
-1433,65	-114,00
-1424,80	-127,00
-1415,95	-52,00
-1407,12	119,00
-1398,30	-127,00
-1389,48	-138,00
-1380,69	-208,00
-1371,90	-92,00
-1363,12	-159,00
-1354,36	-43,00
-1345,60	-188,00
-1336,86	-81,00
-1328,13	-85,00
-1319,41	-68,00
-1310,70	-3,00
-1302,01	-99,00
-1293,32	-81,00
-1284,65	-207,00
-1275,99	-112,00
-1267,33	-55,00
-1258,69	-124,00
-1250,06	26,00
-1241,45	-43,00
-1232,84	-100,00
-1224,25	-102,00
-1215,66	-14,00
-1207,09	-123,00
-1198,53	-95,00
-1189,97	-139,00
-1181,43	-37,00
-1172,91	-57,00
-1164,39	-63,00
-1155,88	-40,00
-1147,38	16,00
-1138,90	-43,00
-1130,43	-93,00
-1121,96	53,00
-1113,51	-83,00
-1105,07	-75,00
-1096,64	-49,00
-1088,22	-45,00
-1079,81	-60,00
-1071,41	-132,00
-1063,02	-81,00
-1054,65	-135,00
-1046,28	-34,00
-1037,92	-60,00
-1029,58	-172,00
-1021,24	-176,00
-1012,92	-142,00
-1004,61	-48,00
-996,30	-12,00
-988,01	-19,00
-979,73	-92,00
-971,46	-101,00
-963,20	-173,00
-954,95	-55,00
-946,71	15,00
-938,48	-104,00
-930,26	-85,00
-922,06	-109,00
-913,86	-50,00
-905,67	-59,00
-897,49	-77,00
-889,33	-102,00
-881,17	-153,00
-873,02	88,00
-864,89	-149,00
-856,76	-97,00
-848,65	-52,00
-840,54	-169,00
-832,45	-53,00
-824,36	-60,00
-816,29	-27,00
-808,22	-185,00
-800,17	-37,00
-792,12	-44,00
-784,09	-207,00
-776,06	-156,00
-768,05	-79,00
-760,04	-19,00
-752,05	-66,00
-744,07	-78,00
-736,09	-136,00
-728,13	11,00
-720,17	-100,00
-712,23	-164,00
-704,29	-36,00
-696,37	-65,00
-688,45	-80,00
-680,55	-29,00
-672,65	-30,00
-664,77	-130,00
-656,89	-91,00
-649,03	-75,00
-641,17	-90,00
-633,32	-77,00
-625,49	-57,00
-617,66	-124,00
-609,84	-81,00
-602,03	-80,00
-594,23	-45,00
-586,45	-118,00
-578,67	-86,00
-570,90	-55,00
-563,14	-21,00
-555,39	-33,00
-547,65	-70,00
-539,91	-215,00
-532,19	40,00
-524,48	-133,00
-516,78	-180,00
-509,08	-108,00
-501,40	-84,00
-493,72	-57,00
-486,06	-25,00
-478,40	-48,00
-470,76	23,00
-463,12	-56,00
-455,49	-43,00
-447,87	-83,00
-440,26	-86,00
-432,66	-67,00
-425,07	-45,00
-417,49	-94,00
-409,92	-22,00
-402,35	-69,00
-394,80	-51,00
-387,25	-42,00
-379,72	33,00
-372,19	-77,00
-364,67	-85,00
-357,17	-39,00
-349,67	-96,00
-342,18	-6,00
-334,69	-71,00
-327,22	44,00
-319,76	-46,00
-312,30	-36,00
-304,86	17,00
-297,42	-26,00
-290,00	40,00
-282,58	-135,00
-275,17	80,00
-267,77	-32,00
-260,37	8,00
-252,99	-137,00
-245,62	66,00
-238,25	-112,00
-230,90	18,00
-223,55	58,00
-216,21	44,00
-208,88	144,00
-201,56	-28,00
-194,25	97,00
-186,94	173,00
-179,65	209,00
-172,36	155,00
-165,08	282,00
-157,81	231,00
-150,55	154,00
-143,30	318,00
-136,06	184,00
-128,82	372,00
-121,60	504,00
-114,38	524,00
-107,17	492,00
-99,97	583,00
-92,78	800,00
-85,60	878,00
-78,42	1142,00
-71,25	1322,00
-64,10	1500,00
-56,95	1717,00
-49,81	2067,00
-42,67	2576,00
-35,55	3378,00
-28,43	4353,00
-21,33	7241,00
-14,23	22980,00
-7,14	56043,00
-0,05	55763,00
7,02	55513,00
14,09	55717,00
21,14	24361,00
28,19	9572,00
35,23	5841,00
42,27	4334,00
49,29	3511,00
56,31	2953,00
63,32	2487,00
70,32	2077,00
77,31	1685,00
84,29	1465,00
91,27	1321,00
98,23	1083,00
105,19	1096,00
112,14	1132,00
119,09	1459,00
126,02	2624,00
132,95	2859,00
139,87	3041,00
146,78	2853,00
153,68	2906,00
160,58	2889,00
167,46	2822,00
174,34	2723,00
181,21	2773,00
188,08	2904,00
194,93	2698,00
201,78	2805,00
208,62	2736,00
215,45	2610,00
222,27	2747,00
229,09	2733,00
235,90	2735,00
242,70	2683,00
249,49	2714,00
256,27	2622,00
263,05	2618,00
269,82	2577,00
276,58	2500,00
283,33	2508,00
290,08	2444,00
296,82	2422,00
303,55	2521,00
310,27	2455,00
316,98	2280,00
323,69	2333,00
330,39	2262,00
337,08	2362,00
343,76	2409,00
350,44	2257,00
357,11	2360,00
363,77	2360,00
370,42	2296,00
377,07	2145,00
383,71	2274,00
390,34	2320,00
396,96	2239,00
403,58	2314,00
410,19	2210,00
416,79	2268,00
423,38	2375,00
429,97	2187,00
436,55	2008,00
443,12	2010,00
449,68	2089,00
456,24	2173,00
462,79	2030,00
469,33	1997,00
475,86	2027,00
482,39	2106,00
488,91	2069,00
495,42	1957,00
501,93	1844,00
508,42	1902,00
514,91	2017,00
521,40	1903,00
527,87	1798,00
534,34	1836,00
540,80	1821,00
547,25	1661,00
553,70	1829,00
560,14	1728,00
566,57	1835,00
573,00	1713,00
579,41	1809,00
585,83	1867,00
592,23	1848,00
598,62	1639,00
605,01	1693,00
611,40	1688,00
617,77	1772,00
624,14	1675,00
630,50	1684,00
636,85	1684,00
643,20	1618,00
649,54	1610,00
655,87	1653,00
662,20	1579,00
668,52	1660,00
674,83	1692,00
681,13	1641,00
687,43	1461,00
693,72	1467,00
700,00	1546,00
706,28	1594,00
712,55	1525,00
718,81	1454,00
725,07	1498,00
731,32	1569,00
737,56	1601,00
743,79	1609,00
750,02	1410,00
756,24	1484,00
762,46	1553,00
768,67	1518,00
774,87	1438,00
781,06	1532,00
787,25	1471,00
793,43	1436,00
799,60	1415,00
805,77	1477,00
811,93	1427,00
818,08	1455,00
824,23	1491,00
830,37	1369,00
836,50	1299,00
842,63	1406,00
848,75	1474,00
854,87	1386,00
860,97	1468,00
867,07	1377,00
873,17	1386,00
879,25	1223,00
885,33	1517,00
891,41	1450,00
897,47	1330,00
903,53	1300,00
909,59	1221,00
915,63	1312,00
921,67	1257,00
927,71	1355,00
933,74	1229,00
939,76	1326,00
945,77	1226,00
951,78	1296,00
957,78	1245,00
963,78	1350,00
969,77	1217,00
975,75	1236,00
981,72	1356,00
987,69	1148,00
993,66	1272,00
999,61	1159,00
1005,56	1108,00
1011,51	1304,00
1017,44	1298,00
1023,37	1091,00
1029,30	1224,00
1035,22	1289,00
1041,13	1206,00
1047,03	1233,00
1052,93	1295,00
1058,83	1507,00
1064,71	1589,00
1070,59	1470,00
1076,47	1228,00
1082,33	1153,00
1088,20	1212,00
1094,05	1064,00
1099,90	1120,00
1105,74	1174,00
1111,58	1230,00
1117,41	1229,00
1123,23	1241,00
1129,05	1646,00
1134,86	1412,00
1140,67	1232,00
1146,47	1153,00
1152,26	1151,00
1158,05	1097,00
1163,83	1006,00
1169,60	1157,00
1175,37	1139,00
1181,13	1060,00
1186,89	1135,00
1192,64	1071,00
1198,38	1065,00
1204,12	1170,00
1209,85	1113,00
1215,58	986,00
1221,30	1100,00
1227,02	1042,00
1232,72	1108,00
1238,43	1069,00
1244,12	1023,00
1249,81	1008,00
1255,50	1076,00
1261,17	1154,00
1266,85	1092,00
1272,51	1228,00
1278,17	1052,00
1283,83	1196,00
1289,47	1427,00
1295,12	1598,00
1300,75	1501,00
1306,38	1388,00
1312,01	1258,00
1317,63	1077,00
1323,24	1128,00
1328,85	1229,00
1334,45	1210,00
1340,04	1231,00
1345,63	1155,00
1351,22	1273,00
1356,80	1153,00
1362,37	1284,00
1367,93	1250,00
1373,49	1290,00
1379,05	1285,00
1384,60	1253,00
1390,14	1257,00
1395,68	1240,00
1401,21	1287,00
1406,74	1336,00
1412,26	1386,00
1417,77	1382,00
1423,28	1467,00
1428,78	1589,00
1434,28	1577,00
1439,77	1599,00
1445,26	1538,00
1450,74	1499,00
1456,22	1457,00
1461,68	1439,00
1467,15	1378,00
1472,61	1232,00
1478,06	1239,00
1483,51	1095,00
1488,95	1196,00
1494,38	1221,00
1499,81	1097,00
1505,24	1115,00
1510,65	999,00
1516,07	1001,00
1521,48	962,00
1526,88	1022,00
1532,27	985,00
1537,67	966,00
1543,05	1003,00
1548,43	970,00
1553,81	1034,00
1559,18	882,00
1564,54	1005,00
1569,90	896,00
1575,25	895,00
1580,60	1055,00
1585,94	1019,00
1591,28	887,00
1596,61	1007,00
1601,93	991,00
1607,25	908,00
1612,57	906,00
1617,88	849,00
1623,18	871,00
1628,48	809,00
1633,77	953,00
1639,06	1040,00
1644,34	880,00
1649,62	771,00
1654,89	829,00
1660,16	740,00
1665,42	836,00
1670,67	858,00
1675,92	755,00
1681,17	843,00
1686,41	808,00
1691,64	759,00
1696,87	947,00
1702,10	683,00
1707,32	793,00
1712,53	845,00
1717,74	704,00
1722,94	784,00
1728,14	723,00
1733,33	739,00
1738,52	654,00
1743,70	767,00
1748,88	792,00
1754,05	573,00
1759,22	837,00
1764,38	-814,00
1769,53	686,00
1774,69	570,00
1779,83	641,00
1784,97	727,00
1790,11	639,00
1795,24	638,00
1800,36	585,00
1805,48	712,00
1810,60	710,00
1815,71	644,00
1820,82	603,00
1825,92	604,00
1831,01	604,00
1836,10	698,00
1841,19	641,00
1846,26	504,00
1851,34	488,00
1856,41	599,00
1861,47	622,00
1866,53	534,00
1871,59	528,00
1876,64	491,00
1881,68	600,00
1886,72	564,00
1891,76	592,00
1896,79	576,00
1901,81	474,00
1906,83	549,00
1911,85	452,00
1916,86	576,00
1921,86	592,00
1926,86	504,00
1931,86	473,00
1936,85	420,00
1941,83	432,00
1946,81	447,00
1951,79	461,00
1956,76	509,00
1961,72	459,00
1966,68	467,00
1971,64	368,00
1976,59	413,00
1981,54	414,00
1986,48	420,00
1991,42	380,00
1996,35	383,00
2001,27	428,00
2006,20	402,00
2011,11	420,00
2016,03	461,00
2020,93	378,00
2025,84	392,00
2030,73	460,00
2035,63	402,00
2040,52	352,00
2045,40	384,00
2050,28	391,00
2055,15	314,00
2060,02	294,00
2064,89	330,00
2069,75	337,00
2074,60	411,00
2079,46	286,00
2084,30	423,00
2089,14	319,00
2093,98	252,00
2098,81	389,00
2103,64	401,00
2108,46	347,00
2113,28	413,00
2118,09	337,00
2122,90	348,00
2127,70	423,00
2132,50	277,00
2137,30	198,00
2142,09	281,00
2146,87	363,00
2151,66	369,00
2156,43	255,00
2161,20	407,00
2165,97	257,00
2170,73	252,00
2175,49	238,00
2180,24	294,00
2184,99	339,00
2189,74	306,00
2194,48	216,00
2199,21	299,00
2203,94	186,00
2208,67	387,00
2213,39	249,00
2218,11	290,00
2222,82	295,00
2227,53	233,00
2232,23	261,00
2236,93	355,00
2241,63	269,00
2246,32	266,00
2251,00	212,00
2255,68	218,00
2260,36	355,00
2265,03	229,00
2269,70	145,00
2274,36	255,00
2279,02	226,00
2283,68	101,00
2288,33	169,00
2292,97	260,00
2297,61	210,00
2302,25	135,00
2306,88	259,00
2311,51	246,00
2316,14	266,00
2320,75	155,00
2325,37	229,00
2329,98	233,00
2334,59	225,00
2339,19	241,00
2343,79	203,00
2348,38	171,00
2352,97	294,00
2357,55	284,00
2362,13	240,00
2366,71	203,00
2371,28	255,00
2375,85	158,00
2380,41	308,00
2384,97	188,00
2389,52	249,00
2394,07	173,00
2398,62	122,00
2403,16	124,00
2407,70	177,00
2412,23	190,00
2416,76	226,00
2421,29	250,00
2425,81	52,00
2430,32	237,00
2434,84	247,00
2439,34	141,00
2443,85	201,00
2448,35	235,00
2452,84	182,00
2457,33	162,00
2461,82	260,00
2466,30	181,00
2470,78	41,00
2475,25	197,00
2479,72	118,00
2484,19	148,00
2488,65	216,00
2493,11	125,00
2497,56	219,00
2502,01	150,00
2506,46	56,00
2510,90	43,00
2515,34	91,00
2519,77	139,00
2524,20	156,00
2528,62	126,00
2533,04	54,00
2537,46	117,00
2541,87	236,00
2546,28	72,00
2550,68	158,00
2555,08	130,00
2559,48	180,00
2563,87	153,00
2568,26	206,00
2572,64	23,00
2577,02	141,00
2581,40	217,00
2585,77	70,00
2590,14	193,00
2594,50	127,00
2598,86	110,00
2603,22	-6,00
2607,57	99,00
2611,92	-22,00
2616,26	46,00
2620,60	121,00
2624,94	178,00
2629,27	0,00
2633,60	82,00
2637,92	172,00
2642,24	11,00
2646,56	12,00
2650,87	53,00
2655,18	84,00
2659,48	48,00
2663,78	94,00
2668,08	47,00
2672,37	85,00
2676,66	80,00
2680,95	186,00
2685,23	26,00
2689,50	24,00
2693,78	46,00
2698,05	102,00
2702,31	40,00
2706,57	121,00
2710,83	101,00
2715,08	267,00
2719,33	78,00
2723,58	142,00
2727,82	155,00
2732,06	135,00
2736,29	89,00
2740,53	106,00
2744,75	85,00
2748,97	205,00
2753,19	120,00
2757,41	127,00
2761,62	155,00
2765,83	142,00
2770,03	92,00
2774,23	37,00
2778,43	38,00
2782,62	178,00
2786,81	54,00
2791,00	98,00
2795,18	166,00
2799,35	162,00
2803,53	158,00
2807,70	195,00
2811,86	60,00
2816,03	168,00
2820,19	106,00
2824,34	157,00
2828,49	246,00
2832,64	217,00
2836,78	327,00
2840,92	388,00
2845,06	498,00
2849,19	627,00
2853,32	686,00
2857,45	595,00
2861,57	551,00
2865,69	564,00
2869,80	538,00
2873,91	462,00
2878,02	605,00
2882,12	544,00
2886,22	619,00
2890,32	571,00
2894,41	486,00
2898,50	418,00
2902,58	437,00
2906,67	480,00
2910,74	465,00
2914,82	336,00
2918,89	230,00
2922,96	332,00
2927,02	274,00
2931,08	315,00
2935,13	180,00
2939,19	213,00
2943,24	211,00
2947,28	192,00
2951,32	115,00
2955,36	123,00
2959,40	-16,00
2963,43	152,00
2967,46	60,00
2971,48	104,00
2975,50	147,00
2979,52	35,00
2983,53	136,00
2987,54	26,00
2991,55	-36,00
2995,55	48,00
2999,55	-37,00
3003,54	17,00
3007,54	-55,00
3011,53	-23,00
3015,51	41,00
3019,49	74,00
3023,47	-6,00
3027,45	-6,00
3031,42	119,00
3035,39	-24,00
3039,35	2,00
3043,31	-115,00
3047,27	64,00
3051,22	-28,00
3055,17	58,00
3059,12	20,00
3063,06	-9,00
3067,00	80,00
3070,94	5,00
3074,87	42,00
3078,80	-54,00
3082,73	-34,00
3086,65	10,00
3090,57	-23,00
3094,49	75,00
3098,40	-46,00
3102,31	-20,00
3106,22	44,00
3110,12	-41,00
3114,02	-58,00
3117,92	-51,00
3121,81	-52,00
3125,70	9,00
3129,58	-23,00
3133,47	39,00
3137,34	42,00
3141,22	-67,00
3145,09	8,00
3148,96	-48,00
3152,83	45,00
3156,69	-40,00
3160,55	-44,00
3164,40	-51,00
3168,26	-69,00
3172,10	-56,00
3175,95	84,00
3179,79	85,00
3183,63	-24,00
3187,47	-14,00
3191,30	-100,00
3195,13	-56,00
3198,95	-50,00
3202,78	-64,00
3206,60	-40,00
3210,41	-52,00
3214,23	-43,00
3218,03	-65,00
3221,84	-105,00
3225,64	-46,00
3229,44	-90,00
3233,24	1,00
3237,03	15,00
3240,82	-35,00
3244,61	-35,00
3248,39	-12,00
3252,17	3,00
3255,95	-77,00
3259,72	9,00
3263,49	-152,00
3267,26	-69,00
3271,03	11,00
3274,79	-8,00
3278,54	-38,00
3282,30	-124,00
3286,05	4,00
3289,80	-118,00
3293,54	21,00
3297,29	-48,00
3301,02	96,00
3304,76	36,00
3308,49	-41,00
3312,22	31,00
3315,95	16,00
3319,67	-52,00
3323,39	-11,00
3327,10	-78,00
3330,82	55,00
3334,53	-47,00
3338,24	37,00
3341,94	5,00
3345,64	-27,00
3349,34	-11,00
3353,03	24,00
3356,72	-6,00
3360,41	-63,00
3364,10	-38,00
3367,78	-106,00
3371,46	13,00
3375,13	-124,00
3378,81	121,00
3382,48	-31,00
3386,14	3,00
3389,81	-15,00
3393,47	-62,00
3397,12	-16,00
3400,78	-23,00
3404,43	-65,00
3408,08	-3,00
3411,72	14,00
3415,36	21,00
3419,00	48,00
3422,64	26,00
3426,27	39,00
3429,90	-9,00
3433,53	-5,00
3437,15	-188,00
3440,77	-7,00
3444,39	-9,00
3448,00	-1,00
3451,62	-70,00
3455,22	-53,00
3458,83	-95,00
3462,43	-85,00
3466,03	-58,00
3469,63	-60,00
3473,22	-10,00
3476,81	-112,00
3480,40	-89,00
3483,99	-92,00
3487,57	-61,00
3491,15	-14,00
3494,72	-53,00
3498,29	-65,00
3501,86	1,00
3505,43	-95,00
3508,99	-114,00
3512,56	-42,00
3516,11	-127,00
3519,67	-82,00
3523,22	-63,00
3526,77	-39,00
3530,32	-76,00
3533,86	-20,00
3537,40	-83,00
3540,94	-212,00
3544,47	-23,00
3548,00	-93,00
3551,53	-132,00
3555,06	-110,00
3558,58	-117,00
3562,10	-19,00
3565,62	-35,00
3569,13	-90,00
3572,64	-120,00
3576,15	-69,00
3579,66	-110,00
3583,16	-7,00
3586,66	-147,00
3590,16	-105,00
3593,65	-134,00
3597,14	-5,00
3600,63	-134,00
3604,11	-69,00
3607,60	-136,00
3611,08	-132,00
3614,55	63,00
3618,03	-47,00
3621,50	-133,00
3624,97	-62,00
3628,43	-145,00
3631,90	-47,00
3635,36	48,00
3638,81	-78,00
3642,27	43,00
3645,72	-175,00
3649,17	-73,00
3652,61	-11,00
3656,06	-176,00
3659,50	-79,00
3662,93	-60,00
3666,37	-98,00
3669,80	-106,00
3673,23	-70,00
3676,65	-78,00
3680,08	-170,00
3683,50	-102,00
3686,92	-44,00
3690,33	-77,00
3693,74	-95,00
3697,15	-92,00
3700,56	-46,00
3703,96	-36,00
3707,36	-99,00
3710,76	-59,00
3714,16	-89,00
3717,55	-38,00
3720,94	-43,00
3724,33	-44,00
3727,71	-97,00
3731,10	-155,00
3734,48	-88,00
3737,85	-49,00
3741,23	-130,00
3744,60	-57,00
3747,97	-7,00
3751,33	-21,00
3754,69	-88,00
3758,05	-57,00
3761,41	-4,00
3764,77	-79,00
3768,12	-145,00
3771,47	34,00
3774,82	6,00
3778,16	-4,00
3781,50	2,00
3784,84	5,00
3788,18	-2,00
>>>>>End Processed Spectral Data<<<<<
