SpectraSuite Data File
++++++++++++++++++++++++++++++++++++
Date: Wed Feb 11 17:07:29 ICT 2026
User: Administrator
Dark Spectrum Present: Yes
Reference Spectrum Present: No
Number of Sampled Component Spectra: 1
Spectrometers: MAYP113682
Integration Time (usec): 3000000 (MAYP113682)
Spectra Averaged: 1 (MAYP113682)
Boxcar Smoothing: 0 (MAYP113682)
Correct for Electrical Dark: No (MAYP113682)
Strobe/Lamp Enabled: No (MAYP113682)
Correct for Detector Non-linearity: No (MAYP113682)
Correct for Stray Light: No (MAYP113682)
Number of Pixels in Processed Spectrum: 2068
>>>>>Begin Processed Spectral Data<<<<<
-37534,58	4,00
-37414,56	0,00
-37295,11	2,00
-37176,24	9,00
-37057,95	142,00
-36940,22	-13,00
-36823,05	59,00
-36706,45	132,00
-36590,40	121,00
-36474,90	89,00
-36359,95	4,00
-36245,55	15,00
-36131,68	17,00
-36018,35	88,00
-35905,55	204,00
-35793,29	70,00
-35681,54	112,00
-35570,32	133,00
-35459,62	105,00
-35349,43	130,00
-35239,75	101,00
-35130,58	90,00
-35021,91	22,00
-34913,74	42,00
-34806,07	-24,00
-34698,89	31,00
-34592,20	81,00
-34486,00	55,00
-34380,28	155,00
-34275,04	22,00
-34170,27	47,00
-34065,98	-35,00
-33962,16	-17,00
-33858,81	169,00
-33755,92	18,00
-33653,49	-15,00
-33551,52	-24,00
-33450,01	6,00
-33348,94	59,00
-33248,33	118,00
-33148,16	26,00
-33048,43	99,00
-32949,14	49,00
-32850,29	31,00
-32751,87	99,00
-32653,89	30,00
-32556,33	20,00
-32459,20	85,00
-32362,49	127,00
-32266,19	68,00
-32170,32	87,00
-32074,86	65,00
-31979,82	93,00
-31885,18	6,00
-31790,95	134,00
-31697,12	122,00
-31603,69	101,00
-31510,67	75,00
-31418,04	146,00
-31325,80	89,00
-31233,95	128,00
-31142,49	92,00
-31051,42	102,00
-30960,73	78,00
-30870,43	135,00
-30780,50	98,00
-30690,95	212,00
-30601,77	93,00
-30512,97	95,00
-30424,53	171,00
-30336,46	116,00
-30248,76	174,00
-30161,42	99,00
-30074,44	73,00
-29987,81	14,00
-29901,55	65,00
-29815,63	150,00
-29730,07	36,00
-29644,86	48,00
-29560,00	33,00
-29475,48	72,00
-29391,30	-7,00
-29307,47	105,00
-29223,97	155,00
-29140,81	70,00
-29057,99	94,00
-28975,50	105,00
-28893,34	16,00
-28811,51	13,00
-28730,00	140,00
-28648,82	86,00
-28567,97	225,00
-28487,43	62,00
-28407,21	3,00
-28327,32	41,00
-28247,73	141,00
-28168,46	141,00
-28089,50	76,00
-28010,85	-126,00
-27932,51	59,00
-27854,48	56,00
-27776,75	39,00
-27699,32	86,00
-27622,19	73,00
-27545,37	100,00
-27468,84	86,00
-27392,60	170,00
-27316,66	14,00
-27241,01	88,00
-27165,66	130,00
-27090,59	15,00
-27015,81	160,00
-26941,31	155,00
-26867,10	49,00
-26793,17	187,00
-26719,52	112,00
-26646,15	27,00
-26573,06	145,00
-26500,24	-27,00
-26427,70	48,00
-26355,43	124,00
-26283,43	66,00
-26211,71	27,00
-26140,25	189,00
-26069,06	182,00
-25998,13	48,00
-25927,46	-1,00
-25857,06	2,00
-25786,92	124,00
-25717,04	36,00
-25647,42	89,00
-25578,05	130,00
-25508,94	98,00
-25440,09	-15,00
-25371,48	104,00
-25303,13	158,00
-25235,02	61,00
-25167,17	73,00
-25099,56	50,00
-25032,19	114,00
-24965,07	-26,00
-24898,20	181,00
-24831,56	134,00
-24765,17	95,00
-24699,01	-4,00
-24633,10	56,00
-24567,41	66,00
-24501,97	95,00
-24436,75	35,00
-24371,77	63,00
-24307,03	54,00
-24242,51	15,00
-24178,22	62,00
-24114,16	159,00
-24050,32	140,00
-23986,71	56,00
-23923,32	136,00
-23860,16	71,00
-23797,22	22,00
-23734,50	159,00
-23672,00	120,00
-23609,71	11,00
-23547,65	102,00
-23485,80	170,00
-23424,16	96,00
-23362,74	90,00
-23301,53	-1,00
-23240,54	116,00
-23179,75	94,00
-23119,17	40,00
-23058,80	20,00
-22998,64	128,00
-22938,68	97,00
-22878,93	181,00
-22819,39	101,00
-22760,04	70,00
-22700,90	96,00
-22641,96	73,00
-22583,22	101,00
-22524,68	-2,00
-22466,33	32,00
-22408,19	34,00
-22350,23	45,00
-22292,48	138,00
-22234,92	110,00
-22177,55	24,00
-22120,37	85,00
-22063,38	48,00
-22006,58	162,00
-21949,98	133,00
-21893,56	117,00
-21837,33	110,00
-21781,28	24,00
-21725,42	87,00
-21669,74	208,00
-21614,25	182,00
-21558,94	89,00
-21503,81	130,00
-21448,86	30,00
-21394,10	126,00
-21339,51	10,00
-21285,10	38,00
-21230,86	44,00
-21176,81	94,00
-21122,93	74,00
-21069,22	124,00
-21015,69	130,00
-20962,33	72,00
-20909,14	118,00
-20856,13	148,00
-20803,28	173,00
-20750,61	111,00
-20698,10	-35,00
-20645,76	104,00
-20593,59	108,00
-20541,59	142,00
-20489,75	122,00
-20438,07	110,00
-20386,56	198,00
-20335,22	84,00
-20284,03	81,00
-20233,01	56,00
-20182,15	-21,00
-20131,45	106,00
-20080,91	79,00
-20030,52	26,00
-19980,30	98,00
-19930,23	69,00
-19880,32	132,00
-19830,56	138,00
-19780,96	59,00
-19731,52	159,00
-19682,23	145,00
-19633,09	-55,00
-19584,10	3,00
-19535,26	93,00
-19486,58	136,00
-19438,04	180,00
-19389,66	93,00
-19341,42	102,00
-19293,33	-15,00
-19245,39	38,00
-19197,60	73,00
-19149,95	46,00
-19102,45	121,00
-19055,09	42,00
-19007,87	120,00
-18960,80	13,00
-18913,87	117,00
-18867,09	33,00
-18820,44	105,00
-18773,94	151,00
-18727,57	118,00
-18681,35	175,00
-18635,26	142,00
-18589,31	185,00
-18543,50	89,00
-18497,83	90,00
-18452,29	135,00
-18406,89	66,00
-18361,63	35,00
-18316,50	52,00
-18271,50	-69,00
-18226,63	34,00
-18181,90	29,00
-18137,30	246,00
-18092,84	59,00
-18048,50	64,00
-18004,29	44,00
-17960,22	132,00
-17916,27	76,00
-17872,45	126,00
-17828,76	201,00
-17785,20	97,00
-17741,77	167,00
-17698,46	127,00
-17655,28	11,00
-17612,22	60,00
-17569,29	-8,00
-17526,48	165,00
-17483,79	149,00
-17441,23	2,00
-17398,79	82,00
-17356,48	132,00
-17314,28	147,00
-17272,21	149,00
-17230,26	-15,00
-17188,42	139,00
-17146,71	78,00
-17105,12	76,00
-17063,64	36,00
-17022,28	8,00
-16981,04	112,00
-16939,92	58,00
-16898,91	147,00
-16858,02	17,00
-16817,25	14,00
-16776,59	12,00
-16736,04	35,00
-16695,61	-7,00
-16655,29	62,00
-16615,09	67,00
-16574,99	94,00
-16535,01	89,00
-16495,15	20,00
-16455,39	162,00
-16415,74	65,00
-16376,21	89,00
-16336,78	54,00
-16297,46	108,00
-16258,26	31,00
-16219,16	137,00
-16180,17	68,00
-16141,28	50,00
-16102,51	70,00
-16063,84	81,00
-16025,27	86,00
-15986,82	48,00
-15948,46	187,00
-15910,22	91,00
-15872,07	141,00
-15834,04	-51,00
-15796,10	150,00
-15758,27	109,00
-15720,54	44,00
-15682,91	126,00
-15645,39	166,00
-15607,97	-27,00
-15570,64	122,00
-15533,42	50,00
-15496,30	51,00
-15459,28	177,00
-15422,36	67,00
-15385,54	-10,00
-15348,82	159,00
-15312,19	103,00
-15275,66	111,00
-15239,23	83,00
-15202,90	45,00
-15166,67	-2,00
-15130,53	23,00
-15094,48	202,00
-15058,54	94,00
-15022,68	121,00
-14986,93	45,00
-14951,26	97,00
-14915,69	52,00
-14880,22	155,00
-14844,84	16,00
-14809,55	156,00
-14774,35	-6,00
-14739,25	118,00
-14704,24	4,00
-14669,32	35,00
-14634,49	73,00
-14599,75	105,00
-14565,10	39,00
-14530,55	9,00
-14496,08	81,00
-14461,70	6,00
-14427,41	42,00
-14393,21	30,00
-14359,10	17,00
-14325,07	72,00
-14291,14	67,00
-14257,29	124,00
-14223,52	33,00
-14189,85	95,00
-14156,26	170,00
-14122,76	101,00
-14089,34	99,00
-14056,01	-54,00
-14022,76	-14,00
-13989,60	-13,00
-13956,52	77,00
-13923,53	-20,00
-13890,62	4,00
-13857,79	-13,00
-13825,05	50,00
-13792,39	40,00
-13759,81	64,00
-13727,31	124,00
-13694,90	88,00
-13662,57	199,00
-13630,31	-4,00
-13598,14	120,00
-13566,05	60,00
-13534,05	57,00
-13502,12	72,00
-13470,27	133,00
-13438,50	156,00
-13406,80	152,00
-13375,19	-7,00
-13343,66	121,00
-13312,20	181,00
-13280,83	106,00
-13249,53	72,00
-13218,30	-48,00
-13187,16	60,00
-13156,09	95,00
-13125,10	118,00
-13094,18	43,00
-13063,34	69,00
-13032,58	150,00
-13001,89	117,00
-12971,28	92,00
-12940,74	-14,00
-12910,27	115,00
-12879,88	84,00
-12849,57	126,00
-12819,33	152,00
-12789,16	176,00
-12759,06	65,00
-12729,04	133,00
-12699,09	-748,00
-12669,21	59,00
-12639,41	35,00
-12609,68	86,00
-12580,02	62,00
-12550,43	-57,00
-12520,91	25,00
-12491,46	69,00
-12462,08	96,00
-12432,77	-44,00
-12403,54	80,00
-12374,37	117,00
-12345,27	3,00
-12316,24	194,00
-12287,29	77,00
-12258,40	127,00
-12229,57	104,00
-12200,82	117,00
-12172,14	50,00
-12143,52	96,00
-12114,97	15,00
-12086,49	162,00
-12058,07	-11,00
-12029,73	63,00
-12001,44	153,00
-11973,23	113,00
-11945,08	3,00
-11917,00	89,00
-11888,98	121,00
-11861,03	59,00
-11833,15	118,00
-11805,32	78,00
-11777,57	93,00
-11749,88	142,00
-11722,25	-12,00
-11694,69	110,00
-11667,19	-45,00
-11639,75	64,00
-11612,38	153,00
-11585,07	-16,00
-11557,83	30,00
-11530,65	70,00
-11503,53	36,00
-11476,47	62,00
-11449,48	41,00
-11422,54	163,00
-11395,67	143,00
-11368,86	77,00
-11342,11	30,00
-11315,43	201,00
-11288,80	111,00
-11262,23	76,00
-11235,73	6,00
-11209,28	142,00
-11182,90	107,00
-11156,57	146,00
-11130,31	103,00
-11104,10	108,00
-11077,96	65,00
-11051,87	172,00
-11025,84	105,00
-10999,87	147,00
-10973,96	34,00
-10948,11	59,00
-10922,31	131,00
-10896,58	130,00
-10870,90	59,00
-10845,28	160,00
-10819,71	109,00
-10794,20	126,00
-10768,75	90,00
-10743,36	66,00
-10718,02	80,00
-10692,74	29,00
-10667,52	73,00
-10642,35	28,00
-10617,24	37,00
-10592,18	85,00
-10567,18	217,00
-10542,23	90,00
-10517,34	83,00
-10492,51	101,00
-10467,72	108,00
-10443,00	-39,00
-10418,32	208,00
-10393,70	24,00
-10369,14	100,00
-10344,63	70,00
-10320,17	86,00
-10295,77	123,00
-10271,42	61,00
-10247,12	201,00
-10222,88	122,00
-10198,68	149,00
-10174,54	124,00
-10150,46	46,00
-10126,42	10,00
-10102,44	32,00
-10078,51	60,00
-10054,63	-6,00
-10030,80	120,00
-10007,03	194,00
-9983,30	46,00
-9959,63	164,00
-9936,01	75,00
-9912,44	90,00
-9888,92	33,00
-9865,44	127,00
-9842,02	92,00
-9818,65	152,00
-9795,33	132,00
-9772,06	164,00
-9748,84	1,00
-9725,67	53,00
-9702,55	149,00
-9679,47	198,00
-9656,45	52,00
-9633,47	45,00
-9610,55	78,00
-9587,67	221,00
-9564,84	141,00
-9542,06	156,00
-9519,32	135,00
-9496,64	181,00
-9474,00	161,00
-9451,41	147,00
-9428,87	-7,00
-9406,37	93,00
-9383,92	18,00
-9361,52	41,00
-9339,17	36,00
-9316,86	76,00
-9294,60	51,00
-9272,38	136,00
-9250,21	236,00
-9228,09	299,00
-9206,01	240,00
-9183,98	148,00
-9162,00	136,00
-9140,06	109,00
-9118,16	36,00
-9096,31	128,00
-9074,51	108,00
-9052,75	225,00
-9031,04	108,00
-9009,37	38,00
-8987,74	39,00
-8966,16	49,00
-8944,63	-60,00
-8923,14	-55,00
-8901,69	13,00
-8880,29	145,00
-8858,93	241,00
-8837,61	233,00
-8816,34	237,00
-8795,11	302,00
-8773,92	235,00
-8752,78	110,00
-8731,68	141,00
-8710,62	378,00
-8689,61	309,00
-8668,63	161,00
-8647,70	283,00
-8626,82	320,00
-8605,97	378,00
-8585,17	209,00
-8564,41	129,00
-8543,69	187,00
-8523,01	76,00
-8502,37	89,00
-8481,78	106,00
-8461,23	257,00
-8440,71	226,00
-8420,24	361,00
-8399,81	347,00
-8379,42	438,00
-8359,08	237,00
-8338,77	314,00
-8318,50	189,00
-8298,27	280,00
-8278,09	284,00
-8257,94	231,00
-8237,83	410,00
-8217,76	313,00
-8197,74	423,00
-8177,75	380,00
-8157,80	426,00
-8137,89	302,00
-8118,02	145,00
-8098,19	292,00
-8078,40	325,00
-8058,65	249,00
-8038,93	404,00
-8019,26	319,00
-7999,62	273,00
-7980,02	271,00
-7960,46	240,00
-7940,94	160,00
-7921,46	319,00
-7902,01	271,00
-7882,60	220,00
-7863,23	236,00
-7843,90	253,00
-7824,61	182,00
-7805,35	311,00
-7786,13	324,00
-7766,95	273,00
-7747,80	372,00
-7728,69	169,00
-7709,62	325,00
-7690,59	233,00
-7671,59	463,00
-7652,63	428,00
-7633,70	344,00
-7614,81	409,00
-7595,96	405,00
-7577,15	197,00
-7558,37	305,00
-7539,62	273,00
-7520,91	247,00
-7502,24	314,00
-7483,60	348,00
-7465,00	308,00
-7446,44	254,00
-7427,91	266,00
-7409,41	47,00
-7390,95	205,00
-7372,53	126,00
-7354,14	57,00
-7335,78	79,00
-7317,46	151,00
-7299,18	230,00
-7280,92	251,00
-7262,71	349,00
-7244,52	223,00
-7226,38	211,00
-7208,26	356,00
-7190,18	252,00
-7172,14	149,00
-7154,12	197,00
-7136,15	278,00
-7118,20	196,00
-7100,29	264,00
-7082,41	237,00
-7064,57	284,00
-7046,76	277,00
-7028,98	86,00
-7011,24	49,00
-6993,53	148,00
-6975,85	122,00
-6958,20	-7,00
-6940,59	51,00
-6923,01	174,00
-6905,46	199,00
-6887,94	11,00
-6870,46	2649,00
-6853,01	276,00
-6835,59	166,00
-6818,21	149,00
-6800,85	125,00
-6783,53	58,00
-6766,24	-59,00
-6748,98	-82,00
-6731,76	71,00
-6714,56	-11,00
-6697,40	-58,00
-6680,26	21,00
-6663,16	17,00
-6646,09	111,00
-6629,05	194,00
-6612,05	122,00
-6595,07	199,00
-6578,13	184,00
-6561,21	21,00
-6544,33	76,00
-6527,47	-158,00
-6510,65	53,00
-6493,86	-108,00
-6477,10	-182,00
-6460,36	86,00
-6443,66	39,00
-6426,99	-44,00
-6410,35	9,00
-6393,74	-47,00
-6377,16	36,00
-6360,61	-27,00
-6344,09	92,00
-6327,59	5,00
-6311,13	96,00
-6294,70	80,00
-6278,29	97,00
-6261,92	192,00
-6245,58	95,00
-6229,26	246,00
-6212,97	125,00
-6196,72	81,00
-6180,49	-4,00
-6164,29	-117,00
-6148,12	20,00
-6131,98	-9,00
-6115,86	-43,00
-6099,78	-175,00
-6083,72	-144,00
-6067,69	-161,00
-6051,69	35,00
-6035,72	-76,00
-6019,78	125,00
-6003,87	-16,00
-5987,98	11,00
-5972,12	150,00
-5956,29	45,00
-5940,49	63,00
-5924,71	101,00
-5908,96	-64,00
-5893,24	53,00
-5877,55	-22,00
-5861,89	-56,00
-5846,25	-42,00
-5830,64	-13,00
-5815,05	-122,00
-5799,50	4,00
-5783,97	-27,00
-5768,47	94,00
-5752,99	141,00
-5737,55	139,00
-5722,12	128,00
-5706,73	141,00
-5691,36	52,00
-5676,02	-67,00
-5660,71	25,00
-5645,42	54,00
-5630,16	-17,00
-5614,92	-20,00
-5599,71	-60,00
-5584,53	-34,00
-5569,37	12,00
-5554,24	945,00
-5539,14	124,00
-5524,06	131,00
-5509,01	-1,00
-5493,98	42,00
-5478,98	57,00
-5464,00	-95,00
-5449,05	177,00
-5434,13	-15,00
-5419,23	43,00
-5404,36	-41,00
-5389,51	20,00
-5374,69	-54,00
-5359,89	-31,00
-5345,12	214,00
-5330,37	111,00
-5315,65	157,00
-5300,95	60,00
-5286,28	134,00
-5271,63	-15,00
-5257,01	-44,00
-5242,41	-30,00
-5227,84	-181,00
-5213,29	75,00
-5198,76	-62,00
-5184,26	-51,00
-5169,79	3,00
-5155,33	34,00
-5140,91	-47,00
-5126,51	38,00
-5112,13	1,00
-5097,77	31,00
-5083,44	61,00
-5069,13	88,00
-5054,85	79,00
-5040,59	139,00
-5026,36	-20,00
-5012,15	35,00
-4997,96	108,00
-4983,80	96,00
-4969,66	25,00
-4955,54	27,00
-4941,44	115,00
-4927,37	64,00
-4913,33	147,00
-4899,30	199,00
-4885,30	181,00
-4871,33	80,00
-4857,37	176,00
-4843,44	88,00
-4829,53	-21,00
-4815,65	210,00
-4801,79	34,00
-4787,95	-40,00
-4774,13	88,00
-4760,34	121,00
-4746,56	-116,00
-4732,82	69,00
-4719,09	-50,00
-4705,38	119,00
-4691,70	121,00
-4678,04	179,00
-4664,41	118,00
-4650,79	136,00
-4637,20	66,00
-4623,63	54,00
-4610,08	-18,00
-4596,56	114,00
-4583,05	38,00
-4569,57	125,00
-4556,11	-4,00
-4542,67	118,00
-4529,25	54,00
-4515,86	135,00
-4502,49	98,00
-4489,13	164,00
-4475,80	90,00
-4462,49	121,00
-4449,21	221,00
-4435,94	107,00
-4422,70	89,00
-4409,47	103,00
-4396,27	16,00
-4383,09	50,00
-4369,93	64,00
-4356,79	80,00
-4343,67	33,00
-4330,58	77,00
-4317,50	78,00
-4304,45	64,00
-4291,41	102,00
-4278,40	118,00
-4265,41	21,00
-4252,44	218,00
-4239,49	149,00
-4226,55	150,00
-4213,65	179,00
-4200,76	46,00
-4187,89	54,00
-4175,04	126,00
-4162,21	27,00
-4149,40	57,00
-4136,61	5,00
-4123,85	108,00
-4111,10	149,00
-4098,37	46,00
-4085,66	142,00
-4072,98	54,00
-4060,31	86,00
-4047,66	26,00
-4035,04	120,00
-4022,43	89,00
-4009,84	100,00
-3997,27	51,00
-3984,72	122,00
-3972,19	123,00
-3959,69	-39,00
-3947,20	99,00
-3934,73	108,00
-3922,27	80,00
-3909,84	20,00
-3897,43	226,00
-3885,04	240,00
-3872,67	2,00
-3860,31	114,00
-3847,98	173,00
-3835,66	71,00
-3823,36	60,00
-3811,09	100,00
-3798,83	181,00
-3786,59	94,00
-3774,37	-13,00
-3762,17	222,00
-3749,98	29,00
-3737,82	126,00
-3725,67	81,00
-3713,55	17,00
-3701,44	70,00
-3689,35	52,00
-3677,28	169,00
-3665,22	121,00
-3653,19	-35,00
-3641,17	90,00
-3629,18	102,00
-3617,20	-9,00
-3605,24	130,00
-3593,30	79,00
-3581,37	90,00
-3569,47	75,00
-3557,58	31,00
-3545,71	31,00
-3533,86	160,00
-3522,02	109,00
-3510,21	99,00
-3498,41	82,00
-3486,63	77,00
-3474,87	116,00
-3463,12	75,00
-3451,40	57,00
-3439,69	95,00
-3428,00	93,00
-3416,33	113,00
-3404,67	54,00
-3393,03	2,00
-3381,41	-41,00
-3369,81	87,00
-3358,22	56,00
-3346,66	114,00
-3335,10	138,00
-3323,57	123,00
-3312,06	131,00
-3300,56	111,00
-3289,08	39,00
-3277,61	90,00
-3266,16	19,00
-3254,73	48,00
-3243,32	57,00
-3231,92	74,00
-3220,55	108,00
-3209,18	124,00
-3197,84	95,00
-3186,51	-6,00
-3175,20	86,00
-3163,90	65,00
-3152,63	114,00
-3141,36	127,00
-3130,12	163,00
-3118,89	176,00
-3107,68	176,00
-3096,49	10,00
-3085,31	64,00
-3074,15	-28,00
-3063,00	173,00
-3051,87	45,00
-3040,76	23,00
-3029,67	163,00
-3018,59	53,00
-3007,52	111,00
-2996,48	75,00
-2985,44	108,00
-2974,43	198,00
-2963,43	46,00
-2952,45	140,00
-2941,48	170,00
-2930,53	62,00
-2919,60	161,00
-2908,68	49,00
-2897,78	39,00
-2886,89	58,00
-2876,02	109,00
-2865,17	4,00
-2854,33	87,00
-2843,50	0,00
-2832,70	73,00
-2821,90	138,00
-2811,13	19,00
-2800,37	155,00
-2789,62	86,00
-2778,89	100,00
-2768,18	211,00
-2757,48	151,00
-2746,80	82,00
-2736,13	70,00
-2725,48	87,00
-2714,84	-13,00
-2704,22	67,00
-2693,61	137,00
-2683,02	98,00
-2672,45	75,00
-2661,89	36,00
-2651,34	97,00
-2640,81	19,00
-2630,30	118,00
-2619,80	67,00
-2609,31	56,00
-2598,84	80,00
-2588,39	97,00
-2577,95	131,00
-2567,52	17,00
-2557,11	6,00
-2546,71	-5,00
-2536,33	96,00
-2525,97	80,00
-2515,62	97,00
-2505,28	96,00
-2494,96	27,00
-2484,65	12,00
-2474,36	117,00
-2464,08	113,00
-2453,82	178,00
-2443,57	21,00
-2433,33	112,00
-2423,11	50,00
-2412,91	71,00
-2402,72	113,00
-2392,54	47,00
-2382,38	106,00
-2372,23	32,00
-2362,09	4149,00
-2351,97	-2,00
-2341,87	221,00
-2331,78	58,00
-2321,70	116,00
-2311,64	100,00
-2301,59	195,00
-2291,55	7,00
-2281,53	-27,00
-2271,53	15,00
-2261,53	-6,00
-2251,55	159,00
-2241,59	11,00
-2231,64	209,00
-2221,70	118,00
-2211,78	35,00
-2201,87	-40,00
-2191,97	71,00
-2182,09	61,00
-2172,22	24,00
-2162,37	36,00
-2152,53	66,00
-2142,70	58,00
-2132,89	87,00
-2123,09	33,00
-2113,30	191,00
-2103,53	65,00
-2093,77	62,00
-2084,02	51,00
-2074,29	88,00
-2064,57	-52,00
-2054,86	71,00
-2045,17	102,00
-2035,49	74,00
-2025,82	48,00
-2016,17	146,00
-2006,53	66,00
-1996,91	48,00
-1987,29	97,00
-1977,69	114,00
-1968,11	201,00
-1958,53	23,00
-1948,97	151,00
-1939,42	136,00
-1929,89	74,00
-1920,37	96,00
-1910,86	84,00
-1901,36	43,00
-1891,88	91,00
-1882,41	95,00
-1872,95	98,00
-1863,51	141,00
-1854,08	-16,00
-1844,66	143,00
-1835,26	34,00
-1825,86	42,00
-1816,48	111,00
-1807,11	107,00
-1797,76	-104,00
-1788,42	132,00
-1779,09	67,00
-1769,77	259,00
-1760,47	94,00
-1751,17	75,00
-1741,89	162,00
-1732,63	121,00
-1723,37	133,00
-1714,13	29,00
-1704,90	65,00
-1695,68	158,00
-1686,48	92,00
-1677,29	135,00
-1668,11	120,00
-1658,94	71,00
-1649,78	72,00
-1640,64	78,00
-1631,51	158,00
-1622,39	122,00
-1613,28	162,00
-1604,19	198,00
-1595,10	173,00
-1586,03	51,00
-1576,97	157,00
-1567,93	116,00
-1558,89	67,00
-1549,87	-4,00
-1540,86	24,00
-1531,86	130,00
-1522,87	10,00
-1513,90	-3,00
-1504,93	123,00
-1495,98	29,00
-1487,04	42,00
-1478,12	267,00
-1469,20	116,00
-1460,30	178,00
-1451,40	117,00
-1442,52	53,00
-1433,65	195,00
-1424,80	34,00
-1415,95	135,00
-1407,12	153,00
-1398,30	60,00
-1389,48	52,00
-1380,69	10,00
-1371,90	76,00
-1363,12	-24,00
-1354,36	192,00
-1345,60	45,00
-1336,86	77,00
-1328,13	160,00
-1319,41	176,00
-1310,70	52,00
-1302,01	-18,00
-1293,32	56,00
-1284,65	43,00
-1275,99	34,00
-1267,33	90,00
-1258,69	73,00
-1250,06	139,00
-1241,45	167,00
-1232,84	106,00
-1224,25	81,00
-1215,66	138,00
-1207,09	33,00
-1198,53	165,00
-1189,97	5,00
-1181,43	147,00
-1172,91	65,00
-1164,39	48,00
-1155,88	144,00
-1147,38	40,00
-1138,90	111,00
-1130,43	120,00
-1121,96	95,00
-1113,51	-6,00
-1105,07	115,00
-1096,64	62,00
-1088,22	143,00
-1079,81	116,00
-1071,41	105,00
-1063,02	120,00
-1054,65	74,00
-1046,28	153,00
-1037,92	12,00
-1029,58	33,00
-1021,24	20,00
-1012,92	92,00
-1004,61	151,00
-996,30	182,00
-988,01	137,00
-979,73	128,00
-971,46	114,00
-963,20	-52,00
-954,95	102,00
-946,71	76,00
-938,48	112,00
-930,26	79,00
-922,06	25,00
-913,86	171,00
-905,67	147,00
-897,49	48,00
-889,33	-2,00
-881,17	137,00
-873,02	177,00
-864,89	47,00
-856,76	47,00
-848,65	203,00
-840,54	113,00
-832,45	129,00
-824,36	63,00
-816,29	105,00
-808,22	62,00
-800,17	199,00
-792,12	168,00
-784,09	35,00
-776,06	44,00
-768,05	42,00
-760,04	194,00
-752,05	106,00
-744,07	106,00
-736,09	30,00
-728,13	222,00
-720,17	105,00
-712,23	82,00
-704,29	79,00
-696,37	27,00
-688,45	31,00
-680,55	189,00
-672,65	166,00
-664,77	120,00
-656,89	46,00
-649,03	148,00
-641,17	2,00
-633,32	111,00
-625,49	236,00
-617,66	77,00
-609,84	85,00
-602,03	61,00
-594,23	78,00
-586,45	74,00
-578,67	164,00
-570,90	90,00
-563,14	50,00
-555,39	17,00
-547,65	57,00
-539,91	4,00
-532,19	122,00
-524,48	80,00
-516,78	-37,00
-509,08	93,00
-501,40	-37,00
-493,72	119,00
-486,06	93,00
-478,40	81,00
-470,76	213,00
-463,12	6,00
-455,49	30,00
-447,87	134,00
-440,26	8,00
-432,66	108,00
-425,07	64,00
-417,49	122,00
-409,92	159,00
-402,35	63,00
-394,80	58,00
-387,25	136,00
-379,72	199,00
-372,19	151,00
-364,67	186,00
-357,17	66,00
-349,67	144,00
-342,18	211,00
-334,69	138,00
-327,22	196,00
-319,76	142,00
-312,30	158,00
-304,86	65,00
-297,42	77,00
-290,00	122,00
-282,58	133,00
-275,17	173,00
-267,77	107,00
-260,37	221,00
-252,99	54,00
-245,62	163,00
-238,25	131,00
-230,90	116,00
-223,55	143,00
-216,21	254,00
-208,88	300,00
-201,56	218,00
-194,25	269,00
-186,94	350,00
-179,65	337,00
-172,36	228,00
-165,08	445,00
-157,81	328,00
-150,55	242,00
-143,30	337,00
-136,06	346,00
-128,82	484,00
-121,60	469,00
-114,38	543,00
-107,17	571,00
-99,97	695,00
-92,78	818,00
-85,60	814,00
-78,42	1054,00
-71,25	1119,00
-64,10	1315,00
-56,95	1487,00
-49,81	1768,00
-42,67	2191,00
-35,55	2755,00
-28,43	3633,00
-21,33	5826,00
-14,23	18323,00
-7,14	56043,00
-0,05	55763,00
7,02	55513,00
14,09	55717,00
21,14	18827,00
28,19	7595,00
35,23	4769,00
42,27	3589,00
49,29	2940,00
56,31	2494,00
63,32	1986,00
70,32	1702,00
77,31	1451,00
84,29	1275,00
91,27	1078,00
98,23	1082,00
105,19	1041,00
112,14	873,00
119,09	1249,00
126,02	1965,00
132,95	2166,00
139,87	2245,00
146,78	2183,00
153,68	2318,00
160,58	2147,00
167,46	2161,00
174,34	2041,00
181,21	1982,00
188,08	2095,00
194,93	1971,00
201,78	1986,00
208,62	2163,00
215,45	2057,00
222,27	2099,00
229,09	1913,00
235,90	2045,00
242,70	1871,00
249,49	1906,00
256,27	1784,00
263,05	1783,00
269,82	1862,00
276,58	1871,00
283,33	1791,00
290,08	1897,00
296,82	1726,00
303,55	1785,00
310,27	1755,00
316,98	1707,00
323,69	1651,00
330,39	1650,00
337,08	1737,00
343,76	1753,00
350,44	1743,00
357,11	1634,00
363,77	1597,00
370,42	1649,00
377,07	1555,00
383,71	1676,00
390,34	1709,00
396,96	1659,00
403,58	1667,00
410,19	1636,00
416,79	1660,00
423,38	1718,00
429,97	1574,00
436,55	1536,00
443,12	1481,00
449,68	1567,00
456,24	1577,00
462,79	1520,00
469,33	1468,00
475,86	1461,00
482,39	1629,00
488,91	1639,00
495,42	1453,00
501,93	1461,00
508,42	1364,00
514,91	1552,00
521,40	1384,00
527,87	1358,00
534,34	1369,00
540,80	1230,00
547,25	1391,00
553,70	1371,00
560,14	1359,00
566,57	1454,00
573,00	1198,00
579,41	1338,00
585,83	1413,00
592,23	1358,00
598,62	1136,00
605,01	1272,00
611,40	1452,00
617,77	1361,00
624,14	1348,00
630,50	1328,00
636,85	1337,00
643,20	1302,00
649,54	1291,00
655,87	1337,00
662,20	1273,00
668,52	1233,00
674,83	1390,00
681,13	1419,00
687,43	1198,00
693,72	1286,00
700,00	1295,00
706,28	1310,00
712,55	1177,00
718,81	1287,00
725,07	1116,00
731,32	1225,00
737,56	1283,00
743,79	1238,00
750,02	1263,00
756,24	1227,00
762,46	1185,00
768,67	1281,00
774,87	1149,00
781,06	1417,00
787,25	1080,00
793,43	1237,00
799,60	1170,00
805,77	1237,00
811,93	1209,00
818,08	1205,00
824,23	1257,00
830,37	1107,00
836,50	1167,00
842,63	1255,00
848,75	1204,00
854,87	1146,00
860,97	1236,00
867,07	1168,00
873,17	1189,00
879,25	1166,00
885,33	1276,00
891,41	1223,00
897,47	1220,00
903,53	1209,00
909,59	1090,00
915,63	1195,00
921,67	1160,00
927,71	1183,00
933,74	1206,00
939,76	1152,00
945,77	1075,00
951,78	1192,00
957,78	1077,00
963,78	1150,00
969,77	1148,00
975,75	1093,00
981,72	1087,00
987,69	1300,00
993,66	1166,00
999,61	1032,00
1005,56	1071,00
1011,51	1107,00
1017,44	1180,00
1023,37	1091,00
1029,30	1183,00
1035,22	1143,00
1041,13	1046,00
1047,03	1229,00
1052,93	1188,00
1058,83	1347,00
1064,71	1481,00
1070,59	1371,00
1076,47	1214,00
1082,33	1052,00
1088,20	1171,00
1094,05	1060,00
1099,90	1080,00
1105,74	994,00
1111,58	1102,00
1117,41	1065,00
1123,23	1123,00
1129,05	1357,00
1134,86	1216,00
1140,67	1088,00
1146,47	1042,00
1152,26	1111,00
1158,05	988,00
1163,83	1002,00
1169,60	983,00
1175,37	930,00
1181,13	926,00
1186,89	958,00
1192,64	983,00
1198,38	950,00
1204,12	936,00
1209,85	880,00
1215,58	856,00
1221,30	994,00
1227,02	869,00
1232,72	1106,00
1238,43	1008,00
1244,12	890,00
1249,81	989,00
1255,50	1078,00
1261,17	943,00
1266,85	1041,00
1272,51	1107,00
1278,17	1005,00
1283,83	1245,00
1289,47	1415,00
1295,12	1535,00
1300,75	1524,00
1306,38	1463,00
1312,01	1194,00
1317,63	1188,00
1323,24	1136,00
1328,85	1209,00
1334,45	1215,00
1340,04	1214,00
1345,63	1130,00
1351,22	1061,00
1356,80	1100,00
1362,37	1237,00
1367,93	1223,00
1373,49	1134,00
1379,05	1287,00
1384,60	1134,00
1390,14	1144,00
1395,68	1147,00
1401,21	1204,00
1406,74	1234,00
1412,26	1142,00
1417,77	1281,00
1423,28	1342,00
1428,78	1488,00
1434,28	1587,00
1439,77	1740,00
1445,26	1700,00
1450,74	1655,00
1456,22	1545,00
1461,68	1588,00
1467,15	1470,00
1472,61	1367,00
1478,06	1372,00
1483,51	1089,00
1488,95	1146,00
1494,38	1135,00
1499,81	1103,00
1505,24	1088,00
1510,65	956,00
1516,07	911,00
1521,48	843,00
1526,88	900,00
1532,27	931,00
1537,67	852,00
1543,05	944,00
1548,43	1046,00
1553,81	959,00
1559,18	752,00
1564,54	918,00
1569,90	968,00
1575,25	770,00
1580,60	889,00
1585,94	934,00
1591,28	837,00
1596,61	898,00
1601,93	928,00
1607,25	801,00
1612,57	874,00
1617,88	906,00
1623,18	920,00
1628,48	814,00
1633,77	893,00
1639,06	1052,00
1644,34	757,00
1649,62	929,00
1654,89	808,00
1660,16	809,00
1665,42	862,00
1670,67	831,00
1675,92	833,00
1681,17	752,00
1686,41	743,00
1691,64	801,00
1696,87	833,00
1702,10	716,00
1707,32	838,00
1712,53	770,00
1717,74	612,00
1722,94	851,00
1728,14	677,00
1733,33	807,00
1738,52	711,00
1743,70	665,00
1748,88	767,00
1754,05	604,00
1759,22	818,00
1764,38	715,00
1769,53	783,00
1774,69	599,00
1779,83	626,00
1784,97	740,00
1790,11	762,00
1795,24	666,00
1800,36	631,00
1805,48	736,00
1810,60	677,00
1815,71	595,00
1820,82	623,00
1825,92	582,00
1831,01	639,00
1836,10	615,00
1841,19	610,00
1846,26	507,00
1851,34	567,00
1856,41	616,00
1861,47	591,00
1866,53	565,00
1871,59	558,00
1876,64	610,00
1881,68	660,00
1886,72	589,00
1891,76	558,00
1896,79	672,00
1901,81	518,00
1906,83	572,00
1911,85	576,00
1916,86	618,00
1921,86	634,00
1926,86	670,00
1931,86	531,00
1936,85	415,00
1941,83	551,00
1946,81	494,00
1951,79	565,00
1956,76	549,00
1961,72	477,00
1966,68	483,00
1971,64	534,00
1976,59	472,00
1981,54	458,00
1986,48	498,00
1991,42	486,00
1996,35	514,00
2001,27	503,00
2006,20	494,00
2011,11	441,00
2016,03	552,00
2020,93	502,00
2025,84	464,00
2030,73	493,00
2035,63	466,00
2040,52	400,00
2045,40	436,00
2050,28	368,00
2055,15	517,00
2060,02	346,00
2064,89	500,00
2069,75	387,00
2074,60	465,00
2079,46	421,00
2084,30	420,00
2089,14	431,00
2093,98	326,00
2098,81	405,00
2103,64	434,00
2108,46	521,00
2113,28	422,00
2118,09	386,00
2122,90	475,00
2127,70	463,00
2132,50	569,00
2137,30	303,00
2142,09	485,00
2146,87	367,00
2151,66	399,00
2156,43	297,00
2161,20	501,00
2165,97	422,00
2170,73	414,00
2175,49	453,00
2180,24	444,00
2184,99	393,00
2189,74	371,00
2194,48	374,00
2199,21	455,00
2203,94	322,00
2208,67	451,00
2213,39	280,00
2218,11	419,00
2222,82	346,00
2227,53	336,00
2232,23	435,00
2236,93	483,00
2241,63	339,00
2246,32	396,00
2251,00	352,00
2255,68	362,00
2260,36	374,00
2265,03	352,00
2269,70	419,00
2274,36	417,00
2279,02	391,00
2283,68	231,00
2288,33	349,00
2292,97	439,00
2297,61	290,00
2302,25	272,00
2306,88	341,00
2311,51	272,00
2316,14	446,00
2320,75	337,00
2325,37	358,00
2329,98	263,00
2334,59	335,00
2339,19	395,00
2343,79	216,00
2348,38	377,00
2352,97	227,00
2357,55	302,00
2362,13	294,00
2366,71	343,00
2371,28	409,00
2375,85	386,00
2380,41	330,00
2384,97	361,00
2389,52	307,00
2394,07	284,00
2398,62	239,00
2403,16	340,00
2407,70	282,00
2412,23	295,00
2416,76	348,00
2421,29	265,00
2425,81	151,00
2430,32	317,00
2434,84	254,00
2439,34	314,00
2443,85	264,00
2448,35	394,00
2452,84	335,00
2457,33	310,00
2461,82	366,00
2466,30	323,00
2470,78	223,00
2475,25	254,00
2479,72	263,00
2484,19	274,00
2488,65	226,00
2493,11	276,00
2497,56	392,00
2502,01	250,00
2506,46	221,00
2510,90	205,00
2515,34	354,00
2519,77	328,00
2524,20	288,00
2528,62	295,00
2533,04	188,00
2537,46	337,00
2541,87	248,00
2546,28	284,00
2550,68	358,00
2555,08	411,00
2559,48	365,00
2563,87	323,00
2568,26	265,00
2572,64	251,00
2577,02	364,00
2581,40	294,00
2585,77	221,00
2590,14	319,00
2594,50	308,00
2598,86	294,00
2603,22	239,00
2607,57	207,00
2611,92	261,00
2616,26	254,00
2620,60	283,00
2624,94	277,00
2629,27	245,00
2633,60	190,00
2637,92	252,00
2642,24	200,00
2646,56	260,00
2650,87	278,00
2655,18	357,00
2659,48	253,00
2663,78	242,00
2668,08	278,00
2672,37	329,00
2676,66	291,00
2680,95	444,00
2685,23	264,00
2689,50	295,00
2693,78	270,00
2698,05	392,00
2702,31	274,00
2706,57	277,00
2710,83	279,00
2715,08	470,00
2719,33	285,00
2723,58	331,00
2727,82	324,00
2732,06	337,00
2736,29	302,00
2740,53	276,00
2744,75	274,00
2748,97	491,00
2753,19	338,00
2757,41	381,00
2761,62	259,00
2765,83	324,00
2770,03	232,00
2774,23	119,00
2778,43	317,00
2782,62	304,00
2786,81	269,00
2791,00	299,00
2795,18	312,00
2799,35	316,00
2803,53	419,00
2807,70	305,00
2811,86	195,00
2816,03	275,00
2820,19	422,00
2824,34	410,00
2828,49	453,00
2832,64	416,00
2836,78	663,00
2840,92	688,00
2845,06	1037,00
2849,19	1085,00
2853,32	1143,00
2857,45	1020,00
2861,57	883,00
2865,69	912,00
2869,80	940,00
2873,91	892,00
2878,02	1026,00
2882,12	1076,00
2886,22	1160,00
2890,32	967,00
2894,41	968,00
2898,50	891,00
2902,58	910,00
2906,67	905,00
2910,74	911,00
2914,82	740,00
2918,89	713,00
2922,96	676,00
2927,02	715,00
2931,08	646,00
2935,13	542,00
2939,19	474,00
2943,24	510,00
2947,28	576,00
2951,32	296,00
2955,36	437,00
2959,40	202,00
2963,43	379,00
2967,46	242,00
2971,48	343,00
2975,50	339,00
2979,52	305,00
2983,53	301,00
2987,54	222,00
2991,55	242,00
2995,55	228,00
2999,55	106,00
3003,54	213,00
3007,54	208,00
3011,53	130,00
3015,51	233,00
3019,49	299,00
3023,47	167,00
3027,45	132,00
3031,42	177,00
3035,39	148,00
3039,35	171,00
3043,31	60,00
3047,27	178,00
3051,22	127,00
3055,17	259,00
3059,12	212,00
3063,06	113,00
3067,00	289,00
3070,94	164,00
3074,87	132,00
3078,80	135,00
3082,73	160,00
3086,65	213,00
3090,57	69,00
3094,49	169,00
3098,40	191,00
3102,31	179,00
3106,22	189,00
3110,12	128,00
3114,02	101,00
3117,92	193,00
3121,81	137,00
3125,70	144,00
3129,58	134,00
3133,47	160,00
3137,34	167,00
3141,22	131,00
3145,09	198,00
3148,96	101,00
3152,83	191,00
3156,69	147,00
3160,55	154,00
3164,40	210,00
3168,26	147,00
3172,10	296,00
3175,95	148,00
3179,79	216,00
3183,63	165,00
3187,47	153,00
3191,30	64,00
3195,13	102,00
3198,95	101,00
3202,78	127,00
3206,60	178,00
3210,41	112,00
3214,23	156,00
3218,03	242,00
3221,84	124,00
3225,64	188,00
3229,44	159,00
3233,24	188,00
3237,03	179,00
3240,82	222,00
3244,61	147,00
3248,39	137,00
3252,17	203,00
3255,95	91,00
3259,72	195,00
3263,49	87,00
3267,26	168,00
3271,03	194,00
3274,79	112,00
3278,54	114,00
3282,30	178,00
3286,05	241,00
3289,80	76,00
3293,54	185,00
3297,29	196,00
3301,02	198,00
3304,76	63,00
3308,49	154,00
3312,22	188,00
3315,95	151,00
3319,67	131,00
3323,39	254,00
3327,10	187,00
3330,82	234,00
3334,53	155,00
3338,24	145,00
3341,94	186,00
3345,64	150,00
3349,34	243,00
3353,03	170,00
3356,72	145,00
3360,41	114,00
3364,10	81,00
3367,78	174,00
3371,46	152,00
3375,13	140,00
3378,81	152,00
3382,48	179,00
3386,14	139,00
3389,81	129,00
3393,47	92,00
3397,12	105,00
3400,78	82,00
3404,43	116,00
3408,08	132,00
3411,72	141,00
3415,36	134,00
3419,00	111,00
3422,64	216,00
3426,27	207,00
3429,90	203,00
3433,53	141,00
3437,15	12,00
3440,77	17,00
3444,39	104,00
3448,00	200,00
3451,62	85,00
3455,22	163,00
3458,83	99,00
3462,43	101,00
3466,03	63,00
3469,63	157,00
3473,22	22,00
3476,81	55,00
3480,40	-46,00
3483,99	190,00
3487,57	131,00
3491,15	96,00
3494,72	170,00
3498,29	26,00
3501,86	130,00
3505,43	73,00
3508,99	94,00
3512,56	58,00
3516,11	124,00
3519,67	24,00
3523,22	93,00
3526,77	78,00
3530,32	105,00
3533,86	248,00
3537,40	64,00
3540,94	171,00
3544,47	73,00
3548,00	58,00
3551,53	14,00
3555,06	86,00
3558,58	170,00
3562,10	91,00
3565,62	204,00
3569,13	3,00
3572,64	61,00
3576,15	145,00
3579,66	-2,00
3583,16	163,00
3586,66	70,00
3590,16	62,00
3593,65	21,00
3597,14	142,00
3600,63	32,00
3604,11	89,00
3607,60	117,00
3611,08	103,00
3614,55	202,00
3618,03	49,00
3621,50	27,00
3624,97	47,00
3628,43	61,00
3631,90	126,00
3635,36	143,00
3638,81	45,00
3642,27	109,00
3645,72	130,00
3649,17	112,00
3652,61	141,00
3656,06	-17,00
3659,50	29,00
3662,93	73,00
3666,37	104,00
3669,80	130,00
3673,23	136,00
3676,65	69,00
3680,08	21,00
3683,50	69,00
3686,92	89,00
3690,33	14,00
3693,74	130,00
3697,15	46,00
3700,56	66,00
3703,96	175,00
3707,36	-23,00
3710,76	100,00
3714,16	174,00
3717,55	196,00
3720,94	133,00
3724,33	101,00
3727,71	32,00
3731,10	38,00
3734,48	123,00
3737,85	72,00
3741,23	36,00
3744,60	59,00
3747,97	52,00
3751,33	114,00
3754,69	55,00
3758,05	34,00
3761,41	109,00
3764,77	119,00
3768,12	5,00
3771,47	95,00
3774,82	141,00
3778,16	-2,00
3781,50	8,00
3784,84	4,00
3788,18	1,00
>>>>>End Processed Spectral Data<<<<<
