SpectraSuite Data File
++++++++++++++++++++++++++++++++++++
Date: Wed Feb 11 17:18:59 ICT 2026
User: Administrator
Dark Spectrum Present: Yes
Reference Spectrum Present: No
Number of Sampled Component Spectra: 1
Spectrometers: MAYP113682
Integration Time (usec): 3000000 (MAYP113682)
Spectra Averaged: 1 (MAYP113682)
Boxcar Smoothing: 0 (MAYP113682)
Correct for Electrical Dark: No (MAYP113682)
Strobe/Lamp Enabled: No (MAYP113682)
Correct for Detector Non-linearity: No (MAYP113682)
Correct for Stray Light: No (MAYP113682)
Number of Pixels in Processed Spectrum: 2068
>>>>>Begin Processed Spectral Data<<<<<
-37534,58	11,00
-37414,56	1,00
-37295,11	0,00
-37176,24	4,00
-37057,95	168,00
-36940,22	61,00
-36823,05	126,00
-36706,45	168,00
-36590,40	162,00
-36474,90	160,00
-36359,95	130,00
-36245,55	146,00
-36131,68	58,00
-36018,35	91,00
-35905,55	315,00
-35793,29	161,00
-35681,54	138,00
-35570,32	167,00
-35459,62	201,00
-35349,43	157,00
-35239,75	212,00
-35130,58	152,00
-35021,91	143,00
-34913,74	160,00
-34806,07	138,00
-34698,89	177,00
-34592,20	177,00
-34486,00	161,00
-34380,28	285,00
-34275,04	144,00
-34170,27	86,00
-34065,98	48,00
-33962,16	187,00
-33858,81	205,00
-33755,92	138,00
-33653,49	103,00
-33551,52	137,00
-33450,01	90,00
-33348,94	129,00
-33248,33	195,00
-33148,16	172,00
-33048,43	123,00
-32949,14	231,00
-32850,29	89,00
-32751,87	248,00
-32653,89	115,00
-32556,33	130,00
-32459,20	150,00
-32362,49	238,00
-32266,19	133,00
-32170,32	142,00
-32074,86	179,00
-31979,82	213,00
-31885,18	193,00
-31790,95	160,00
-31697,12	170,00
-31603,69	99,00
-31510,67	170,00
-31418,04	193,00
-31325,80	245,00
-31233,95	344,00
-31142,49	152,00
-31051,42	123,00
-30960,73	214,00
-30870,43	224,00
-30780,50	192,00
-30690,95	201,00
-30601,77	236,00
-30512,97	179,00
-30424,53	183,00
-30336,46	183,00
-30248,76	182,00
-30161,42	222,00
-30074,44	204,00
-29987,81	89,00
-29901,55	155,00
-29815,63	295,00
-29730,07	159,00
-29644,86	186,00
-29560,00	270,00
-29475,48	237,00
-29391,30	83,00
-29307,47	214,00
-29223,97	228,00
-29140,81	102,00
-29057,99	180,00
-28975,50	145,00
-28893,34	131,00
-28811,51	144,00
-28730,00	235,00
-28648,82	257,00
-28567,97	276,00
-28487,43	104,00
-28407,21	121,00
-28327,32	145,00
-28247,73	232,00
-28168,46	265,00
-28089,50	171,00
-28010,85	37,00
-27932,51	125,00
-27854,48	230,00
-27776,75	139,00
-27699,32	181,00
-27622,19	204,00
-27545,37	161,00
-27468,84	239,00
-27392,60	295,00
-27316,66	138,00
-27241,01	153,00
-27165,66	223,00
-27090,59	74,00
-27015,81	152,00
-26941,31	163,00
-26867,10	226,00
-26793,17	217,00
-26719,52	209,00
-26646,15	186,00
-26573,06	149,00
-26500,24	73,00
-26427,70	157,00
-26355,43	180,00
-26283,43	173,00
-26211,71	154,00
-26140,25	233,00
-26069,06	233,00
-25998,13	169,00
-25927,46	148,00
-25857,06	67,00
-25786,92	228,00
-25717,04	169,00
-25647,42	115,00
-25578,05	206,00
-25508,94	154,00
-25440,09	88,00
-25371,48	103,00
-25303,13	148,00
-25235,02	159,00
-25167,17	249,00
-25099,56	266,00
-25032,19	158,00
-24965,07	95,00
-24898,20	210,00
-24831,56	188,00
-24765,17	255,00
-24699,01	168,00
-24633,10	244,00
-24567,41	222,00
-24501,97	92,00
-24436,75	184,00
-24371,77	115,00
-24307,03	166,00
-24242,51	82,00
-24178,22	158,00
-24114,16	185,00
-24050,32	210,00
-23986,71	110,00
-23923,32	177,00
-23860,16	102,00
-23797,22	152,00
-23734,50	154,00
-23672,00	127,00
-23609,71	149,00
-23547,65	113,00
-23485,80	214,00
-23424,16	119,00
-23362,74	261,00
-23301,53	-4,00
-23240,54	133,00
-23179,75	190,00
-23119,17	203,00
-23058,80	146,00
-22998,64	293,00
-22938,68	182,00
-22878,93	202,00
-22819,39	166,00
-22760,04	235,00
-22700,90	68,00
-22641,96	258,00
-22583,22	297,00
-22524,68	133,00
-22466,33	111,00
-22408,19	200,00
-22350,23	167,00
-22292,48	153,00
-22234,92	172,00
-22177,55	63,00
-22120,37	174,00
-22063,38	194,00
-22006,58	233,00
-21949,98	136,00
-21893,56	130,00
-21837,33	214,00
-21781,28	152,00
-21725,42	181,00
-21669,74	227,00
-21614,25	178,00
-21558,94	105,00
-21503,81	139,00
-21448,86	71,00
-21394,10	255,00
-21339,51	131,00
-21285,10	226,00
-21230,86	78,00
-21176,81	205,00
-21122,93	142,00
-21069,22	222,00
-21015,69	237,00
-20962,33	152,00
-20909,14	135,00
-20856,13	263,00
-20803,28	201,00
-20750,61	199,00
-20698,10	209,00
-20645,76	122,00
-20593,59	169,00
-20541,59	169,00
-20489,75	246,00
-20438,07	161,00
-20386,56	323,00
-20335,22	272,00
-20284,03	188,00
-20233,01	204,00
-20182,15	119,00
-20131,45	198,00
-20080,91	104,00
-20030,52	107,00
-19980,30	181,00
-19930,23	140,00
-19880,32	261,00
-19830,56	200,00
-19780,96	193,00
-19731,52	228,00
-19682,23	204,00
-19633,09	17,00
-19584,10	199,00
-19535,26	161,00
-19486,58	294,00
-19438,04	273,00
-19389,66	121,00
-19341,42	153,00
-19293,33	112,00
-19245,39	246,00
-19197,60	204,00
-19149,95	170,00
-19102,45	191,00
-19055,09	125,00
-19007,87	195,00
-18960,80	246,00
-18913,87	221,00
-18867,09	99,00
-18820,44	231,00
-18773,94	268,00
-18727,57	85,00
-18681,35	159,00
-18635,26	214,00
-18589,31	153,00
-18543,50	133,00
-18497,83	224,00
-18452,29	211,00
-18406,89	142,00
-18361,63	152,00
-18316,50	136,00
-18271,50	167,00
-18226,63	112,00
-18181,90	154,00
-18137,30	224,00
-18092,84	186,00
-18048,50	215,00
-18004,29	201,00
-17960,22	150,00
-17916,27	176,00
-17872,45	169,00
-17828,76	217,00
-17785,20	260,00
-17741,77	200,00
-17698,46	210,00
-17655,28	148,00
-17612,22	130,00
-17569,29	95,00
-17526,48	273,00
-17483,79	274,00
-17441,23	13,00
-17398,79	182,00
-17356,48	144,00
-17314,28	228,00
-17272,21	248,00
-17230,26	136,00
-17188,42	135,00
-17146,71	163,00
-17105,12	161,00
-17063,64	228,00
-17022,28	145,00
-16981,04	233,00
-16939,92	153,00
-16898,91	100,00
-16858,02	115,00
-16817,25	74,00
-16776,59	166,00
-16736,04	113,00
-16695,61	135,00
-16655,29	140,00
-16615,09	124,00
-16574,99	262,00
-16535,01	159,00
-16495,15	185,00
-16455,39	221,00
-16415,74	149,00
-16376,21	130,00
-16336,78	192,00
-16297,46	169,00
-16258,26	164,00
-16219,16	167,00
-16180,17	175,00
-16141,28	102,00
-16102,51	172,00
-16063,84	264,00
-16025,27	148,00
-15986,82	182,00
-15948,46	221,00
-15910,22	168,00
-15872,07	160,00
-15834,04	58,00
-15796,10	215,00
-15758,27	218,00
-15720,54	138,00
-15682,91	228,00
-15645,39	213,00
-15607,97	164,00
-15570,64	200,00
-15533,42	151,00
-15496,30	109,00
-15459,28	184,00
-15422,36	192,00
-15385,54	223,00
-15348,82	177,00
-15312,19	107,00
-15275,66	176,00
-15239,23	153,00
-15202,90	147,00
-15166,67	125,00
-15130,53	156,00
-15094,48	211,00
-15058,54	183,00
-15022,68	147,00
-14986,93	329,00
-14951,26	220,00
-14915,69	61,00
-14880,22	254,00
-14844,84	195,00
-14809,55	241,00
-14774,35	150,00
-14739,25	137,00
-14704,24	121,00
-14669,32	147,00
-14634,49	138,00
-14599,75	148,00
-14565,10	190,00
-14530,55	79,00
-14496,08	114,00
-14461,70	233,00
-14427,41	146,00
-14393,21	151,00
-14359,10	134,00
-14325,07	172,00
-14291,14	229,00
-14257,29	271,00
-14223,52	150,00
-14189,85	111,00
-14156,26	197,00
-14122,76	185,00
-14089,34	190,00
-14056,01	45,00
-14022,76	87,00
-13989,60	147,00
-13956,52	125,00
-13923,53	123,00
-13890,62	175,00
-13857,79	111,00
-13825,05	98,00
-13792,39	155,00
-13759,81	199,00
-13727,31	122,00
-13694,90	147,00
-13662,57	169,00
-13630,31	130,00
-13598,14	236,00
-13566,05	196,00
-13534,05	176,00
-13502,12	226,00
-13470,27	171,00
-13438,50	146,00
-13406,80	203,00
-13375,19	223,00
-13343,66	237,00
-13312,20	182,00
-13280,83	94,00
-13249,53	187,00
-13218,30	101,00
-13187,16	93,00
-13156,09	204,00
-13125,10	175,00
-13094,18	149,00
-13063,34	151,00
-13032,58	178,00
-13001,89	183,00
-12971,28	149,00
-12940,74	137,00
-12910,27	140,00
-12879,88	168,00
-12849,57	169,00
-12819,33	67,00
-12789,16	177,00
-12759,06	165,00
-12729,04	213,00
-12699,09	-429,00
-12669,21	207,00
-12639,41	81,00
-12609,68	135,00
-12580,02	141,00
-12550,43	70,00
-12520,91	88,00
-12491,46	203,00
-12462,08	162,00
-12432,77	76,00
-12403,54	131,00
-12374,37	297,00
-12345,27	149,00
-12316,24	294,00
-12287,29	198,00
-12258,40	99,00
-12229,57	253,00
-12200,82	246,00
-12172,14	191,00
-12143,52	266,00
-12114,97	158,00
-12086,49	204,00
-12058,07	156,00
-12029,73	262,00
-12001,44	139,00
-11973,23	219,00
-11945,08	157,00
-11917,00	208,00
-11888,98	162,00
-11861,03	149,00
-11833,15	179,00
-11805,32	238,00
-11777,57	138,00
-11749,88	260,00
-11722,25	64,00
-11694,69	184,00
-11667,19	135,00
-11639,75	163,00
-11612,38	165,00
-11585,07	90,00
-11557,83	179,00
-11530,65	144,00
-11503,53	186,00
-11476,47	151,00
-11449,48	155,00
-11422,54	218,00
-11395,67	174,00
-11368,86	145,00
-11342,11	134,00
-11315,43	243,00
-11288,80	91,00
-11262,23	198,00
-11235,73	105,00
-11209,28	193,00
-11182,90	243,00
-11156,57	220,00
-11130,31	208,00
-11104,10	177,00
-11077,96	238,00
-11051,87	174,00
-11025,84	204,00
-10999,87	168,00
-10973,96	102,00
-10948,11	148,00
-10922,31	156,00
-10896,58	217,00
-10870,90	188,00
-10845,28	254,00
-10819,71	249,00
-10794,20	190,00
-10768,75	142,00
-10743,36	102,00
-10718,02	141,00
-10692,74	231,00
-10667,52	135,00
-10642,35	86,00
-10617,24	221,00
-10592,18	203,00
-10567,18	149,00
-10542,23	188,00
-10517,34	189,00
-10492,51	189,00
-10467,72	147,00
-10443,00	151,00
-10418,32	311,00
-10393,70	163,00
-10369,14	180,00
-10344,63	188,00
-10320,17	265,00
-10295,77	257,00
-10271,42	179,00
-10247,12	249,00
-10222,88	276,00
-10198,68	268,00
-10174,54	267,00
-10150,46	268,00
-10126,42	242,00
-10102,44	200,00
-10078,51	208,00
-10054,63	192,00
-10030,80	306,00
-10007,03	346,00
-9983,30	233,00
-9959,63	403,00
-9936,01	287,00
-9912,44	303,00
-9888,92	337,00
-9865,44	296,00
-9842,02	338,00
-9818,65	435,00
-9795,33	365,00
-9772,06	459,00
-9748,84	287,00
-9725,67	411,00
-9702,55	380,00
-9679,47	529,00
-9656,45	460,00
-9633,47	474,00
-9610,55	515,00
-9587,67	596,00
-9564,84	633,00
-9542,06	634,00
-9519,32	602,00
-9496,64	705,00
-9474,00	850,00
-9451,41	763,00
-9428,87	817,00
-9406,37	847,00
-9383,92	722,00
-9361,52	746,00
-9339,17	812,00
-9316,86	921,00
-9294,60	1017,00
-9272,38	1071,00
-9250,21	1370,00
-9228,09	1497,00
-9206,01	1348,00
-9183,98	1256,00
-9162,00	1116,00
-9140,06	1074,00
-9118,16	1126,00
-9096,31	1197,00
-9074,51	1195,00
-9052,75	1210,00
-9031,04	1217,00
-9009,37	1072,00
-8987,74	978,00
-8966,16	848,00
-8944,63	833,00
-8923,14	708,00
-8901,69	872,00
-8880,29	893,00
-8858,93	969,00
-8837,61	1046,00
-8816,34	1042,00
-8795,11	1310,00
-8773,92	1010,00
-8752,78	910,00
-8731,68	981,00
-8710,62	1009,00
-8689,61	954,00
-8668,63	1048,00
-8647,70	1133,00
-8626,82	1069,00
-8605,97	998,00
-8585,17	924,00
-8564,41	875,00
-8543,69	907,00
-8523,01	773,00
-8502,37	773,00
-8481,78	865,00
-8461,23	989,00
-8440,71	1041,00
-8420,24	1218,00
-8399,81	1093,00
-8379,42	1302,00
-8359,08	965,00
-8338,77	996,00
-8318,50	989,00
-8298,27	889,00
-8278,09	832,00
-8257,94	970,00
-8237,83	1133,00
-8217,76	1028,00
-8197,74	1075,00
-8177,75	1162,00
-8157,80	901,00
-8137,89	913,00
-8118,02	847,00
-8098,19	887,00
-8078,40	983,00
-8058,65	946,00
-8038,93	966,00
-8019,26	938,00
-7999,62	866,00
-7980,02	790,00
-7960,46	692,00
-7940,94	774,00
-7921,46	764,00
-7902,01	783,00
-7882,60	591,00
-7863,23	733,00
-7843,90	840,00
-7824,61	760,00
-7805,35	880,00
-7786,13	872,00
-7766,95	918,00
-7747,80	862,00
-7728,69	748,00
-7709,62	768,00
-7690,59	765,00
-7671,59	958,00
-7652,63	968,00
-7633,70	872,00
-7614,81	906,00
-7595,96	844,00
-7577,15	595,00
-7558,37	786,00
-7539,62	810,00
-7520,91	857,00
-7502,24	864,00
-7483,60	921,00
-7465,00	845,00
-7446,44	664,00
-7427,91	712,00
-7409,41	514,00
-7390,95	609,00
-7372,53	494,00
-7354,14	514,00
-7335,78	555,00
-7317,46	551,00
-7299,18	675,00
-7280,92	745,00
-7262,71	812,00
-7244,52	890,00
-7226,38	859,00
-7208,26	743,00
-7190,18	770,00
-7172,14	651,00
-7154,12	762,00
-7136,15	760,00
-7118,20	821,00
-7100,29	865,00
-7082,41	880,00
-7064,57	769,00
-7046,76	703,00
-7028,98	616,00
-7011,24	615,00
-6993,53	606,00
-6975,85	555,00
-6958,20	325,00
-6940,59	464,00
-6923,01	447,00
-6905,46	587,00
-6887,94	530,00
-6870,46	3300,00
-6853,01	768,00
-6835,59	796,00
-6818,21	661,00
-6800,85	572,00
-6783,53	414,00
-6766,24	408,00
-6748,98	344,00
-6731,76	371,00
-6714,56	265,00
-6697,40	355,00
-6680,26	320,00
-6663,16	389,00
-6646,09	516,00
-6629,05	496,00
-6612,05	549,00
-6595,07	631,00
-6578,13	575,00
-6561,21	499,00
-6544,33	357,00
-6527,47	247,00
-6510,65	416,00
-6493,86	277,00
-6477,10	213,00
-6460,36	387,00
-6443,66	372,00
-6426,99	247,00
-6410,35	262,00
-6393,74	327,00
-6377,16	459,00
-6360,61	422,00
-6344,09	516,00
-6327,59	457,00
-6311,13	502,00
-6294,70	482,00
-6278,29	503,00
-6261,92	649,00
-6245,58	590,00
-6229,26	589,00
-6212,97	478,00
-6196,72	573,00
-6180,49	330,00
-6164,29	239,00
-6148,12	263,00
-6131,98	215,00
-6115,86	240,00
-6099,78	111,00
-6083,72	156,00
-6067,69	92,00
-6051,69	273,00
-6035,72	157,00
-6019,78	399,00
-6003,87	361,00
-5987,98	411,00
-5972,12	483,00
-5956,29	456,00
-5940,49	443,00
-5924,71	317,00
-5908,96	235,00
-5893,24	175,00
-5877,55	264,00
-5861,89	196,00
-5846,25	260,00
-5830,64	276,00
-5815,05	206,00
-5799,50	320,00
-5783,97	198,00
-5768,47	325,00
-5752,99	543,00
-5737,55	421,00
-5722,12	460,00
-5706,73	602,00
-5691,36	320,00
-5676,02	217,00
-5660,71	242,00
-5645,42	334,00
-5630,16	232,00
-5614,92	265,00
-5599,71	359,00
-5584,53	319,00
-5569,37	329,00
-5554,24	1140,00
-5539,14	383,00
-5524,06	344,00
-5509,01	209,00
-5493,98	393,00
-5478,98	317,00
-5464,00	291,00
-5449,05	461,00
-5434,13	225,00
-5419,23	243,00
-5404,36	268,00
-5389,51	229,00
-5374,69	400,00
-5359,89	462,00
-5345,12	488,00
-5330,37	486,00
-5315,65	543,00
-5300,95	400,00
-5286,28	368,00
-5271,63	289,00
-5257,01	256,00
-5242,41	210,00
-5227,84	236,00
-5213,29	306,00
-5198,76	168,00
-5184,26	213,00
-5169,79	197,00
-5155,33	266,00
-5140,91	316,00
-5126,51	375,00
-5112,13	390,00
-5097,77	219,00
-5083,44	306,00
-5069,13	295,00
-5054,85	263,00
-5040,59	356,00
-5026,36	261,00
-5012,15	202,00
-4997,96	359,00
-4983,80	358,00
-4969,66	291,00
-4955,54	242,00
-4941,44	282,00
-4927,37	469,00
-4913,33	570,00
-4899,30	597,00
-4885,30	590,00
-4871,33	385,00
-4857,37	464,00
-4843,44	193,00
-4829,53	264,00
-4815,65	387,00
-4801,79	223,00
-4787,95	334,00
-4774,13	134,00
-4760,34	254,00
-4746,56	119,00
-4732,82	304,00
-4719,09	232,00
-4705,38	363,00
-4691,70	517,00
-4678,04	451,00
-4664,41	234,00
-4650,79	361,00
-4637,20	214,00
-4623,63	153,00
-4610,08	230,00
-4596,56	406,00
-4583,05	292,00
-4569,57	386,00
-4556,11	238,00
-4542,67	245,00
-4529,25	212,00
-4515,86	350,00
-4502,49	357,00
-4489,13	400,00
-4475,80	417,00
-4462,49	156,00
-4449,21	347,00
-4435,94	247,00
-4422,70	321,00
-4409,47	354,00
-4396,27	368,00
-4383,09	290,00
-4369,93	288,00
-4356,79	202,00
-4343,67	175,00
-4330,58	348,00
-4317,50	335,00
-4304,45	260,00
-4291,41	212,00
-4278,40	210,00
-4265,41	183,00
-4252,44	369,00
-4239,49	372,00
-4226,55	385,00
-4213,65	364,00
-4200,76	261,00
-4187,89	256,00
-4175,04	288,00
-4162,21	186,00
-4149,40	218,00
-4136,61	146,00
-4123,85	198,00
-4111,10	191,00
-4098,37	153,00
-4085,66	195,00
-4072,98	162,00
-4060,31	222,00
-4047,66	142,00
-4035,04	211,00
-4022,43	166,00
-4009,84	190,00
-3997,27	213,00
-3984,72	111,00
-3972,19	130,00
-3959,69	109,00
-3947,20	267,00
-3934,73	198,00
-3922,27	168,00
-3909,84	119,00
-3897,43	252,00
-3885,04	261,00
-3872,67	113,00
-3860,31	222,00
-3847,98	226,00
-3835,66	236,00
-3823,36	158,00
-3811,09	157,00
-3798,83	177,00
-3786,59	155,00
-3774,37	171,00
-3762,17	284,00
-3749,98	137,00
-3737,82	269,00
-3725,67	215,00
-3713,55	148,00
-3701,44	181,00
-3689,35	187,00
-3677,28	176,00
-3665,22	195,00
-3653,19	19,00
-3641,17	160,00
-3629,18	195,00
-3617,20	171,00
-3605,24	337,00
-3593,30	258,00
-3581,37	225,00
-3569,47	82,00
-3557,58	193,00
-3545,71	70,00
-3533,86	346,00
-3522,02	188,00
-3510,21	124,00
-3498,41	135,00
-3486,63	57,00
-3474,87	251,00
-3463,12	189,00
-3451,40	205,00
-3439,69	193,00
-3428,00	239,00
-3416,33	122,00
-3404,67	158,00
-3393,03	129,00
-3381,41	147,00
-3369,81	161,00
-3358,22	148,00
-3346,66	164,00
-3335,10	236,00
-3323,57	284,00
-3312,06	223,00
-3300,56	150,00
-3289,08	96,00
-3277,61	99,00
-3266,16	148,00
-3254,73	234,00
-3243,32	256,00
-3231,92	113,00
-3220,55	175,00
-3209,18	207,00
-3197,84	275,00
-3186,51	39,00
-3175,20	175,00
-3163,90	139,00
-3152,63	253,00
-3141,36	203,00
-3130,12	205,00
-3118,89	234,00
-3107,68	152,00
-3096,49	100,00
-3085,31	127,00
-3074,15	109,00
-3063,00	266,00
-3051,87	184,00
-3040,76	86,00
-3029,67	123,00
-3018,59	228,00
-3007,52	186,00
-2996,48	156,00
-2985,44	88,00
-2974,43	221,00
-2963,43	172,00
-2952,45	96,00
-2941,48	265,00
-2930,53	155,00
-2919,60	239,00
-2908,68	82,00
-2897,78	105,00
-2886,89	146,00
-2876,02	186,00
-2865,17	74,00
-2854,33	220,00
-2843,50	107,00
-2832,70	206,00
-2821,90	226,00
-2811,13	156,00
-2800,37	259,00
-2789,62	99,00
-2778,89	215,00
-2768,18	134,00
-2757,48	230,00
-2746,80	163,00
-2736,13	160,00
-2725,48	228,00
-2714,84	101,00
-2704,22	132,00
-2693,61	222,00
-2683,02	149,00
-2672,45	251,00
-2661,89	150,00
-2651,34	175,00
-2640,81	151,00
-2630,30	264,00
-2619,80	208,00
-2609,31	183,00
-2598,84	177,00
-2588,39	192,00
-2577,95	227,00
-2567,52	58,00
-2557,11	106,00
-2546,71	162,00
-2536,33	258,00
-2525,97	163,00
-2515,62	251,00
-2505,28	199,00
-2494,96	46,00
-2484,65	199,00
-2474,36	285,00
-2464,08	252,00
-2453,82	254,00
-2443,57	116,00
-2433,33	184,00
-2423,11	142,00
-2412,91	212,00
-2402,72	140,00
-2392,54	152,00
-2382,38	266,00
-2372,23	216,00
-2362,09	-105,00
-2351,97	231,00
-2341,87	227,00
-2331,78	161,00
-2321,70	242,00
-2311,64	177,00
-2301,59	247,00
-2291,55	120,00
-2281,53	142,00
-2271,53	163,00
-2261,53	124,00
-2251,55	296,00
-2241,59	51,00
-2231,64	230,00
-2221,70	208,00
-2211,78	157,00
-2201,87	141,00
-2191,97	203,00
-2182,09	127,00
-2172,22	251,00
-2162,37	88,00
-2152,53	167,00
-2142,70	48,00
-2132,89	239,00
-2123,09	159,00
-2113,30	230,00
-2103,53	170,00
-2093,77	123,00
-2084,02	102,00
-2074,29	177,00
-2064,57	3,00
-2054,86	117,00
-2045,17	218,00
-2035,49	135,00
-2025,82	198,00
-2016,17	214,00
-2006,53	219,00
-1996,91	159,00
-1987,29	125,00
-1977,69	279,00
-1968,11	273,00
-1958,53	173,00
-1948,97	97,00
-1939,42	189,00
-1929,89	132,00
-1920,37	198,00
-1910,86	172,00
-1901,36	145,00
-1891,88	136,00
-1882,41	126,00
-1872,95	235,00
-1863,51	271,00
-1854,08	122,00
-1844,66	215,00
-1835,26	171,00
-1825,86	175,00
-1816,48	213,00
-1807,11	266,00
-1797,76	149,00
-1788,42	269,00
-1779,09	243,00
-1769,77	279,00
-1760,47	197,00
-1751,17	249,00
-1741,89	121,00
-1732,63	163,00
-1723,37	309,00
-1714,13	192,00
-1704,90	59,00
-1695,68	295,00
-1686,48	103,00
-1677,29	254,00
-1668,11	140,00
-1658,94	278,00
-1649,78	216,00
-1640,64	120,00
-1631,51	245,00
-1622,39	111,00
-1613,28	227,00
-1604,19	210,00
-1595,10	286,00
-1586,03	199,00
-1576,97	280,00
-1567,93	270,00
-1558,89	185,00
-1549,87	105,00
-1540,86	126,00
-1531,86	227,00
-1522,87	102,00
-1513,90	179,00
-1504,93	110,00
-1495,98	174,00
-1487,04	241,00
-1478,12	356,00
-1469,20	147,00
-1460,30	258,00
-1451,40	218,00
-1442,52	128,00
-1433,65	276,00
-1424,80	221,00
-1415,95	303,00
-1407,12	302,00
-1398,30	184,00
-1389,48	39,00
-1380,69	164,00
-1371,90	175,00
-1363,12	115,00
-1354,36	257,00
-1345,60	203,00
-1336,86	207,00
-1328,13	328,00
-1319,41	192,00
-1310,70	187,00
-1302,01	64,00
-1293,32	209,00
-1284,65	174,00
-1275,99	100,00
-1267,33	138,00
-1258,69	230,00
-1250,06	291,00
-1241,45	191,00
-1232,84	231,00
-1224,25	128,00
-1215,66	165,00
-1207,09	203,00
-1198,53	226,00
-1189,97	108,00
-1181,43	202,00
-1172,91	166,00
-1164,39	226,00
-1155,88	196,00
-1147,38	182,00
-1138,90	283,00
-1130,43	159,00
-1121,96	236,00
-1113,51	280,00
-1105,07	213,00
-1096,64	122,00
-1088,22	258,00
-1079,81	200,00
-1071,41	103,00
-1063,02	194,00
-1054,65	161,00
-1046,28	219,00
-1037,92	140,00
-1029,58	147,00
-1021,24	71,00
-1012,92	270,00
-1004,61	176,00
-996,30	219,00
-988,01	186,00
-979,73	202,00
-971,46	292,00
-963,20	105,00
-954,95	222,00
-946,71	220,00
-938,48	151,00
-930,26	137,00
-922,06	142,00
-913,86	203,00
-905,67	217,00
-897,49	279,00
-889,33	81,00
-881,17	217,00
-873,02	265,00
-864,89	78,00
-856,76	125,00
-848,65	224,00
-840,54	228,00
-832,45	219,00
-824,36	140,00
-816,29	209,00
-808,22	118,00
-800,17	193,00
-792,12	299,00
-784,09	199,00
-776,06	162,00
-768,05	116,00
-760,04	241,00
-752,05	206,00
-744,07	121,00
-736,09	105,00
-728,13	257,00
-720,17	126,00
-712,23	86,00
-704,29	256,00
-696,37	219,00
-688,45	151,00
-680,55	217,00
-672,65	201,00
-664,77	211,00
-656,89	154,00
-649,03	129,00
-641,17	113,00
-633,32	253,00
-625,49	257,00
-617,66	95,00
-609,84	241,00
-602,03	191,00
-594,23	179,00
-586,45	324,00
-578,67	174,00
-570,90	185,00
-563,14	151,00
-555,39	177,00
-547,65	194,00
-539,91	92,00
-532,19	258,00
-524,48	195,00
-516,78	81,00
-509,08	99,00
-501,40	190,00
-493,72	235,00
-486,06	167,00
-478,40	201,00
-470,76	230,00
-463,12	218,00
-455,49	203,00
-447,87	206,00
-440,26	167,00
-432,66	148,00
-425,07	185,00
-417,49	87,00
-409,92	132,00
-402,35	204,00
-394,80	169,00
-387,25	201,00
-379,72	225,00
-372,19	289,00
-364,67	193,00
-357,17	187,00
-349,67	208,00
-342,18	216,00
-334,69	359,00
-327,22	306,00
-319,76	247,00
-312,30	246,00
-304,86	188,00
-297,42	252,00
-290,00	259,00
-282,58	237,00
-275,17	317,00
-267,77	266,00
-260,37	293,00
-252,99	121,00
-245,62	283,00
-238,25	113,00
-230,90	297,00
-223,55	271,00
-216,21	298,00
-208,88	421,00
-201,56	315,00
-194,25	315,00
-186,94	491,00
-179,65	367,00
-172,36	293,00
-165,08	489,00
-157,81	566,00
-150,55	509,00
-143,30	687,00
-136,06	544,00
-128,82	710,00
-121,60	678,00
-114,38	776,00
-107,17	845,00
-99,97	874,00
-92,78	1074,00
-85,60	1143,00
-78,42	1316,00
-71,25	1541,00
-64,10	1794,00
-56,95	2074,00
-49,81	2398,00
-42,67	2923,00
-35,55	3506,00
-28,43	4679,00
-21,33	7630,00
-14,23	23300,00
-7,14	56043,00
-0,05	55763,00
7,02	55513,00
14,09	55717,00
21,14	24883,00
28,19	10087,00
35,23	6310,00
42,27	4732,00
49,29	3873,00
56,31	3326,00
63,32	2702,00
70,32	2259,00
77,31	1968,00
84,29	1643,00
91,27	1602,00
98,23	1427,00
105,19	1325,00
112,14	1273,00
119,09	1624,00
126,02	2436,00
132,95	2743,00
139,87	2858,00
146,78	2793,00
153,68	2866,00
160,58	2743,00
167,46	2607,00
174,34	2604,00
181,21	2613,00
188,08	2683,00
194,93	2640,00
201,78	2651,00
208,62	2615,00
215,45	2543,00
222,27	2633,00
229,09	2599,00
235,90	2567,00
242,70	2503,00
249,49	2424,00
256,27	2502,00
263,05	2502,00
269,82	2409,00
276,58	2442,00
283,33	2318,00
290,08	2453,00
296,82	2268,00
303,55	2298,00
310,27	2248,00
316,98	2244,00
323,69	2138,00
330,39	2184,00
337,08	2195,00
343,76	2285,00
350,44	2253,00
357,11	2230,00
363,77	2227,00
370,42	2207,00
377,07	2105,00
383,71	2227,00
390,34	2220,00
396,96	2185,00
403,58	2107,00
410,19	2083,00
416,79	2128,00
423,38	2225,00
429,97	2072,00
436,55	1948,00
443,12	2045,00
449,68	1825,00
456,24	1936,00
462,79	1985,00
469,33	1956,00
475,86	1932,00
482,39	1997,00
488,91	2054,00
495,42	1839,00
501,93	1933,00
508,42	1779,00
514,91	1895,00
521,40	1788,00
527,87	1769,00
534,34	1771,00
540,80	1687,00
547,25	1684,00
553,70	1705,00
560,14	1633,00
566,57	1789,00
573,00	1655,00
579,41	1775,00
585,83	1844,00
592,23	1824,00
598,62	1665,00
605,01	1692,00
611,40	1669,00
617,77	1746,00
624,14	1609,00
630,50	1687,00
636,85	1674,00
643,20	1604,00
649,54	1600,00
655,87	1646,00
662,20	1642,00
668,52	1652,00
674,83	1796,00
681,13	1654,00
687,43	1519,00
693,72	1467,00
700,00	1497,00
706,28	1552,00
712,55	1585,00
718,81	1591,00
725,07	1462,00
731,32	1464,00
737,56	1565,00
743,79	1591,00
750,02	1501,00
756,24	1560,00
762,46	1521,00
768,67	1456,00
774,87	1460,00
781,06	1615,00
787,25	1430,00
793,43	1555,00
799,60	1420,00
805,77	1426,00
811,93	1368,00
818,08	1459,00
824,23	1575,00
830,37	1464,00
836,50	1371,00
842,63	1469,00
848,75	1460,00
854,87	1486,00
860,97	1479,00
867,07	1468,00
873,17	1397,00
879,25	1317,00
885,33	1484,00
891,41	1343,00
897,47	1346,00
903,53	1382,00
909,59	1307,00
915,63	1449,00
921,67	1365,00
927,71	1346,00
933,74	1356,00
939,76	1269,00
945,77	1261,00
951,78	1329,00
957,78	1259,00
963,78	1406,00
969,77	1325,00
975,75	1260,00
981,72	1269,00
987,69	1433,00
993,66	1358,00
999,61	1297,00
1005,56	1277,00
1011,51	1370,00
1017,44	1276,00
1023,37	1284,00
1029,30	1307,00
1035,22	1276,00
1041,13	1266,00
1047,03	1309,00
1052,93	1360,00
1058,83	1518,00
1064,71	1651,00
1070,59	1460,00
1076,47	1273,00
1082,33	1153,00
1088,20	1155,00
1094,05	1160,00
1099,90	1186,00
1105,74	1250,00
1111,58	1261,00
1117,41	1168,00
1123,23	1318,00
1129,05	1651,00
1134,86	1482,00
1140,67	1326,00
1146,47	1144,00
1152,26	1190,00
1158,05	1131,00
1163,83	1274,00
1169,60	1179,00
1175,37	1130,00
1181,13	1191,00
1186,89	1198,00
1192,64	1069,00
1198,38	1226,00
1204,12	1247,00
1209,85	1106,00
1215,58	1048,00
1221,30	1167,00
1227,02	1130,00
1232,72	1208,00
1238,43	1157,00
1244,12	1052,00
1249,81	1221,00
1255,50	1211,00
1261,17	1113,00
1266,85	1171,00
1272,51	1261,00
1278,17	1134,00
1283,83	1392,00
1289,47	1467,00
1295,12	1726,00
1300,75	1548,00
1306,38	1546,00
1312,01	1248,00
1317,63	1189,00
1323,24	1341,00
1328,85	1261,00
1334,45	1335,00
1340,04	1243,00
1345,63	1248,00
1351,22	1306,00
1356,80	1265,00
1362,37	1404,00
1367,93	1361,00
1373,49	1302,00
1379,05	1420,00
1384,60	1335,00
1390,14	1254,00
1395,68	1283,00
1401,21	1324,00
1406,74	1433,00
1412,26	1397,00
1417,77	1426,00
1423,28	1556,00
1428,78	1475,00
1434,28	1506,00
1439,77	1697,00
1445,26	1580,00
1450,74	1606,00
1456,22	1519,00
1461,68	1466,00
1467,15	1499,00
1472,61	1408,00
1478,06	1347,00
1483,51	1291,00
1488,95	1272,00
1494,38	1320,00
1499,81	1212,00
1505,24	1193,00
1510,65	1177,00
1516,07	1081,00
1521,48	1070,00
1526,88	1187,00
1532,27	1061,00
1537,67	1007,00
1543,05	1088,00
1548,43	1172,00
1553,81	1077,00
1559,18	970,00
1564,54	1044,00
1569,90	1177,00
1575,25	1080,00
1580,60	1054,00
1585,94	1057,00
1591,28	1057,00
1596,61	1007,00
1601,93	1115,00
1607,25	1055,00
1612,57	1052,00
1617,88	1021,00
1623,18	1063,00
1628,48	1036,00
1633,77	1069,00
1639,06	1019,00
1644,34	923,00
1649,62	965,00
1654,89	946,00
1660,16	861,00
1665,42	1023,00
1670,67	944,00
1675,92	952,00
1681,17	883,00
1686,41	945,00
1691,64	956,00
1696,87	908,00
1702,10	850,00
1707,32	946,00
1712,53	985,00
1717,74	860,00
1722,94	1063,00
1728,14	843,00
1733,33	884,00
1738,52	911,00
1743,70	936,00
1748,88	866,00
1754,05	835,00
1759,22	1038,00
1764,38	-439,00
1769,53	931,00
1774,69	692,00
1779,83	747,00
1784,97	864,00
1790,11	875,00
1795,24	883,00
1800,36	758,00
1805,48	876,00
1810,60	788,00
1815,71	746,00
1820,82	734,00
1825,92	749,00
1831,01	744,00
1836,10	789,00
1841,19	751,00
1846,26	593,00
1851,34	670,00
1856,41	834,00
1861,47	763,00
1866,53	715,00
1871,59	683,00
1876,64	716,00
1881,68	802,00
1886,72	717,00
1891,76	716,00
1896,79	734,00
1901,81	718,00
1906,83	730,00
1911,85	628,00
1916,86	766,00
1921,86	763,00
1926,86	796,00
1931,86	641,00
1936,85	578,00
1941,83	674,00
1946,81	677,00
1951,79	703,00
1956,76	730,00
1961,72	601,00
1966,68	776,00
1971,64	619,00
1976,59	597,00
1981,54	584,00
1986,48	637,00
1991,42	624,00
1996,35	695,00
2001,27	564,00
2006,20	623,00
2011,11	586,00
2016,03	574,00
2020,93	616,00
2025,84	553,00
2030,73	572,00
2035,63	539,00
2040,52	600,00
2045,40	549,00
2050,28	557,00
2055,15	583,00
2060,02	527,00
2064,89	570,00
2069,75	466,00
2074,60	521,00
2079,46	517,00
2084,30	558,00
2089,14	490,00
2093,98	361,00
2098,81	579,00
2103,64	627,00
2108,46	499,00
2113,28	570,00
2118,09	513,00
2122,90	573,00
2127,70	516,00
2132,50	603,00
2137,30	445,00
2142,09	500,00
2146,87	530,00
2151,66	449,00
2156,43	512,00
2161,20	546,00
2165,97	469,00
2170,73	566,00
2175,49	440,00
2180,24	544,00
2184,99	558,00
2189,74	581,00
2194,48	507,00
2199,21	434,00
2203,94	431,00
2208,67	542,00
2213,39	413,00
2218,11	483,00
2222,82	481,00
2227,53	457,00
2232,23	532,00
2236,93	601,00
2241,63	460,00
2246,32	532,00
2251,00	434,00
2255,68	465,00
2260,36	501,00
2265,03	561,00
2269,70	480,00
2274,36	499,00
2279,02	649,00
2283,68	331,00
2288,33	539,00
2292,97	519,00
2297,61	495,00
2302,25	381,00
2306,88	470,00
2311,51	472,00
2316,14	460,00
2320,75	427,00
2325,37	395,00
2329,98	544,00
2334,59	484,00
2339,19	425,00
2343,79	335,00
2348,38	513,00
2352,97	378,00
2357,55	451,00
2362,13	409,00
2366,71	417,00
2371,28	558,00
2375,85	443,00
2380,41	494,00
2384,97	443,00
2389,52	431,00
2394,07	387,00
2398,62	385,00
2403,16	477,00
2407,70	281,00
2412,23	364,00
2416,76	359,00
2421,29	358,00
2425,81	315,00
2430,32	530,00
2434,84	379,00
2439,34	455,00
2443,85	420,00
2448,35	433,00
2452,84	397,00
2457,33	375,00
2461,82	532,00
2466,30	417,00
2470,78	341,00
2475,25	331,00
2479,72	355,00
2484,19	330,00
2488,65	378,00
2493,11	358,00
2497,56	419,00
2502,01	409,00
2506,46	390,00
2510,90	308,00
2515,34	315,00
2519,77	309,00
2524,20	346,00
2528,62	397,00
2533,04	271,00
2537,46	402,00
2541,87	426,00
2546,28	424,00
2550,68	356,00
2555,08	339,00
2559,48	401,00
2563,87	374,00
2568,26	330,00
2572,64	379,00
2577,02	435,00
2581,40	434,00
2585,77	313,00
2590,14	379,00
2594,50	415,00
2598,86	385,00
2603,22	232,00
2607,57	325,00
2611,92	307,00
2616,26	256,00
2620,60	401,00
2624,94	372,00
2629,27	381,00
2633,60	313,00
2637,92	410,00
2642,24	281,00
2646,56	303,00
2650,87	241,00
2655,18	367,00
2659,48	271,00
2663,78	292,00
2668,08	276,00
2672,37	365,00
2676,66	373,00
2680,95	399,00
2685,23	327,00
2689,50	352,00
2693,78	304,00
2698,05	386,00
2702,31	298,00
2706,57	378,00
2710,83	249,00
2715,08	423,00
2719,33	358,00
2723,58	369,00
2727,82	408,00
2732,06	345,00
2736,29	319,00
2740,53	342,00
2744,75	364,00
2748,97	473,00
2753,19	435,00
2757,41	532,00
2761,62	357,00
2765,83	326,00
2770,03	259,00
2774,23	285,00
2778,43	265,00
2782,62	312,00
2786,81	330,00
2791,00	371,00
2795,18	511,00
2799,35	378,00
2803,53	472,00
2807,70	357,00
2811,86	366,00
2816,03	383,00
2820,19	475,00
2824,34	383,00
2828,49	484,00
2832,64	416,00
2836,78	528,00
2840,92	620,00
2845,06	738,00
2849,19	786,00
2853,32	869,00
2857,45	755,00
2861,57	681,00
2865,69	736,00
2869,80	704,00
2873,91	613,00
2878,02	713,00
2882,12	825,00
2886,22	836,00
2890,32	796,00
2894,41	758,00
2898,50	613,00
2902,58	621,00
2906,67	827,00
2910,74	666,00
2914,82	536,00
2918,89	511,00
2922,96	572,00
2927,02	538,00
2931,08	513,00
2935,13	427,00
2939,19	414,00
2943,24	484,00
2947,28	481,00
2951,32	305,00
2955,36	332,00
2959,40	281,00
2963,43	324,00
2967,46	314,00
2971,48	331,00
2975,50	374,00
2979,52	247,00
2983,53	289,00
2987,54	279,00
2991,55	304,00
2995,55	232,00
2999,55	239,00
3003,54	263,00
3007,54	170,00
3011,53	236,00
3015,51	214,00
3019,49	416,00
3023,47	165,00
3027,45	290,00
3031,42	303,00
3035,39	210,00
3039,35	255,00
3043,31	222,00
3047,27	320,00
3051,22	250,00
3055,17	263,00
3059,12	300,00
3063,06	257,00
3067,00	332,00
3070,94	295,00
3074,87	142,00
3078,80	160,00
3082,73	268,00
3086,65	285,00
3090,57	184,00
3094,49	259,00
3098,40	135,00
3102,31	143,00
3106,22	291,00
3110,12	238,00
3114,02	330,00
3117,92	171,00
3121,81	258,00
3125,70	320,00
3129,58	214,00
3133,47	127,00
3137,34	234,00
3141,22	155,00
3145,09	355,00
3148,96	164,00
3152,83	379,00
3156,69	286,00
3160,55	228,00
3164,40	220,00
3168,26	331,00
3172,10	372,00
3175,95	241,00
3179,79	240,00
3183,63	199,00
3187,47	285,00
3191,30	212,00
3195,13	169,00
3198,95	275,00
3202,78	197,00
3206,60	280,00
3210,41	198,00
3214,23	268,00
3218,03	250,00
3221,84	136,00
3225,64	271,00
3229,44	251,00
3233,24	254,00
3237,03	152,00
3240,82	257,00
3244,61	259,00
3248,39	239,00
3252,17	240,00
3255,95	180,00
3259,72	249,00
3263,49	132,00
3267,26	299,00
3271,03	299,00
3274,79	169,00
3278,54	196,00
3282,30	185,00
3286,05	291,00
3289,80	199,00
3293,54	321,00
3297,29	187,00
3301,02	293,00
3304,76	199,00
3308,49	224,00
3312,22	294,00
3315,95	209,00
3319,67	233,00
3323,39	299,00
3327,10	241,00
3330,82	360,00
3334,53	208,00
3338,24	278,00
3341,94	265,00
3345,64	328,00
3349,34	275,00
3353,03	252,00
3356,72	304,00
3360,41	201,00
3364,10	240,00
3367,78	146,00
3371,46	257,00
3375,13	193,00
3378,81	407,00
3382,48	251,00
3386,14	247,00
3389,81	215,00
3393,47	225,00
3397,12	251,00
3400,78	192,00
3404,43	334,00
3408,08	228,00
3411,72	188,00
3415,36	301,00
3419,00	135,00
3422,64	295,00
3426,27	307,00
3429,90	284,00
3433,53	151,00
3437,15	182,00
3440,77	204,00
3444,39	159,00
3448,00	275,00
3451,62	226,00
3455,22	197,00
3458,83	156,00
3462,43	167,00
3466,03	166,00
3469,63	205,00
3473,22	170,00
3476,81	172,00
3480,40	189,00
3483,99	228,00
3487,57	189,00
3491,15	226,00
3494,72	207,00
3498,29	235,00
3501,86	260,00
3505,43	143,00
3508,99	153,00
3512,56	224,00
3516,11	137,00
3519,67	266,00
3523,22	224,00
3526,77	156,00
3530,32	86,00
3533,86	230,00
3537,40	157,00
3540,94	197,00
3544,47	177,00
3548,00	211,00
3551,53	191,00
3555,06	82,00
3558,58	217,00
3562,10	133,00
3565,62	245,00
3569,13	92,00
3572,64	262,00
3576,15	185,00
3579,66	141,00
3583,16	265,00
3586,66	126,00
3590,16	249,00
3593,65	100,00
3597,14	179,00
3600,63	128,00
3604,11	181,00
3607,60	114,00
3611,08	175,00
3614,55	309,00
3618,03	152,00
3621,50	182,00
3624,97	135,00
3628,43	133,00
3631,90	146,00
3635,36	258,00
3638,81	174,00
3642,27	133,00
3645,72	138,00
3649,17	143,00
3652,61	223,00
3656,06	207,00
3659,50	53,00
3662,93	175,00
3666,37	236,00
3669,80	191,00
3673,23	215,00
3676,65	200,00
3680,08	162,00
3683,50	186,00
3686,92	201,00
3690,33	87,00
3693,74	157,00
3697,15	114,00
3700,56	181,00
3703,96	222,00
3707,36	34,00
3710,76	192,00
3714,16	252,00
3717,55	168,00
3720,94	232,00
3724,33	236,00
3727,71	69,00
3731,10	85,00
3734,48	195,00
3737,85	121,00
3741,23	95,00
3744,60	177,00
3747,97	203,00
3751,33	121,00
3754,69	167,00
3758,05	39,00
3761,41	180,00
3764,77	132,00
3768,12	48,00
3771,47	149,00
3774,82	163,00
3778,16	0,00
3781,50	10,00
3784,84	1,00
3788,18	2,00
>>>>>End Processed Spectral Data<<<<<
