SpectraSuite Data File
++++++++++++++++++++++++++++++++++++
Date: Wed Feb 11 17:14:56 ICT 2026
User: Administrator
Dark Spectrum Present: Yes
Reference Spectrum Present: No
Number of Sampled Component Spectra: 1
Spectrometers: MAYP113682
Integration Time (usec): 3000000 (MAYP113682)
Spectra Averaged: 1 (MAYP113682)
Boxcar Smoothing: 0 (MAYP113682)
Correct for Electrical Dark: No (MAYP113682)
Strobe/Lamp Enabled: No (MAYP113682)
Correct for Detector Non-linearity: No (MAYP113682)
Correct for Stray Light: No (MAYP113682)
Number of Pixels in Processed Spectrum: 2068
>>>>>Begin Processed Spectral Data<<<<<
-37534,58	12,00
-37414,56	0,00
-37295,11	3,00
-37176,24	1,00
-37057,95	145,00
-36940,22	105,00
-36823,05	163,00
-36706,45	148,00
-36590,40	204,00
-36474,90	177,00
-36359,95	50,00
-36245,55	209,00
-36131,68	98,00
-36018,35	156,00
-35905,55	313,00
-35793,29	143,00
-35681,54	72,00
-35570,32	130,00
-35459,62	184,00
-35349,43	133,00
-35239,75	140,00
-35130,58	178,00
-35021,91	116,00
-34913,74	125,00
-34806,07	40,00
-34698,89	63,00
-34592,20	171,00
-34486,00	72,00
-34380,28	198,00
-34275,04	128,00
-34170,27	94,00
-34065,98	24,00
-33962,16	85,00
-33858,81	177,00
-33755,92	99,00
-33653,49	171,00
-33551,52	99,00
-33450,01	70,00
-33348,94	49,00
-33248,33	165,00
-33148,16	79,00
-33048,43	98,00
-32949,14	148,00
-32850,29	104,00
-32751,87	123,00
-32653,89	130,00
-32556,33	-8,00
-32459,20	171,00
-32362,49	120,00
-32266,19	39,00
-32170,32	152,00
-32074,86	140,00
-31979,82	108,00
-31885,18	218,00
-31790,95	197,00
-31697,12	160,00
-31603,69	172,00
-31510,67	79,00
-31418,04	250,00
-31325,80	202,00
-31233,95	258,00
-31142,49	61,00
-31051,42	43,00
-30960,73	235,00
-30870,43	151,00
-30780,50	211,00
-30690,95	181,00
-30601,77	247,00
-30512,97	91,00
-30424,53	180,00
-30336,46	119,00
-30248,76	244,00
-30161,42	139,00
-30074,44	158,00
-29987,81	39,00
-29901,55	202,00
-29815,63	172,00
-29730,07	127,00
-29644,86	192,00
-29560,00	125,00
-29475,48	79,00
-29391,30	82,00
-29307,47	58,00
-29223,97	155,00
-29140,81	151,00
-29057,99	176,00
-28975,50	125,00
-28893,34	29,00
-28811,51	126,00
-28730,00	168,00
-28648,82	168,00
-28567,97	210,00
-28487,43	135,00
-28407,21	91,00
-28327,32	112,00
-28247,73	162,00
-28168,46	192,00
-28089,50	149,00
-28010,85	109,00
-27932,51	98,00
-27854,48	132,00
-27776,75	58,00
-27699,32	220,00
-27622,19	233,00
-27545,37	184,00
-27468,84	129,00
-27392,60	226,00
-27316,66	92,00
-27241,01	69,00
-27165,66	166,00
-27090,59	94,00
-27015,81	144,00
-26941,31	194,00
-26867,10	126,00
-26793,17	263,00
-26719,52	252,00
-26646,15	174,00
-26573,06	192,00
-26500,24	170,00
-26427,70	129,00
-26355,43	154,00
-26283,43	138,00
-26211,71	180,00
-26140,25	142,00
-26069,06	195,00
-25998,13	171,00
-25927,46	164,00
-25857,06	59,00
-25786,92	138,00
-25717,04	152,00
-25647,42	163,00
-25578,05	180,00
-25508,94	53,00
-25440,09	118,00
-25371,48	91,00
-25303,13	176,00
-25235,02	141,00
-25167,17	180,00
-25099,56	151,00
-25032,19	181,00
-24965,07	108,00
-24898,20	109,00
-24831,56	249,00
-24765,17	127,00
-24699,01	150,00
-24633,10	195,00
-24567,41	152,00
-24501,97	102,00
-24436,75	122,00
-24371,77	170,00
-24307,03	137,00
-24242,51	159,00
-24178,22	143,00
-24114,16	122,00
-24050,32	172,00
-23986,71	110,00
-23923,32	159,00
-23860,16	172,00
-23797,22	143,00
-23734,50	137,00
-23672,00	98,00
-23609,71	97,00
-23547,65	138,00
-23485,80	182,00
-23424,16	103,00
-23362,74	210,00
-23301,53	19,00
-23240,54	205,00
-23179,75	191,00
-23119,17	136,00
-23058,80	146,00
-22998,64	132,00
-22938,68	197,00
-22878,93	186,00
-22819,39	11,00
-22760,04	133,00
-22700,90	87,00
-22641,96	119,00
-22583,22	164,00
-22524,68	38,00
-22466,33	189,00
-22408,19	124,00
-22350,23	110,00
-22292,48	212,00
-22234,92	136,00
-22177,55	10,00
-22120,37	222,00
-22063,38	192,00
-22006,58	208,00
-21949,98	135,00
-21893,56	153,00
-21837,33	94,00
-21781,28	120,00
-21725,42	178,00
-21669,74	204,00
-21614,25	166,00
-21558,94	119,00
-21503,81	138,00
-21448,86	70,00
-21394,10	149,00
-21339,51	151,00
-21285,10	166,00
-21230,86	22,00
-21176,81	91,00
-21122,93	161,00
-21069,22	161,00
-21015,69	244,00
-20962,33	200,00
-20909,14	96,00
-20856,13	157,00
-20803,28	154,00
-20750,61	93,00
-20698,10	57,00
-20645,76	267,00
-20593,59	182,00
-20541,59	173,00
-20489,75	236,00
-20438,07	128,00
-20386,56	221,00
-20335,22	146,00
-20284,03	139,00
-20233,01	124,00
-20182,15	60,00
-20131,45	172,00
-20080,91	164,00
-20030,52	97,00
-19980,30	146,00
-19930,23	29,00
-19880,32	215,00
-19830,56	186,00
-19780,96	143,00
-19731,52	191,00
-19682,23	249,00
-19633,09	-72,00
-19584,10	114,00
-19535,26	96,00
-19486,58	169,00
-19438,04	209,00
-19389,66	144,00
-19341,42	230,00
-19293,33	32,00
-19245,39	124,00
-19197,60	156,00
-19149,95	148,00
-19102,45	204,00
-19055,09	108,00
-19007,87	196,00
-18960,80	203,00
-18913,87	222,00
-18867,09	118,00
-18820,44	145,00
-18773,94	168,00
-18727,57	10,00
-18681,35	245,00
-18635,26	187,00
-18589,31	125,00
-18543,50	207,00
-18497,83	118,00
-18452,29	137,00
-18406,89	92,00
-18361,63	221,00
-18316,50	27,00
-18271,50	136,00
-18226,63	169,00
-18181,90	197,00
-18137,30	176,00
-18092,84	141,00
-18048,50	140,00
-18004,29	137,00
-17960,22	251,00
-17916,27	138,00
-17872,45	165,00
-17828,76	203,00
-17785,20	167,00
-17741,77	93,00
-17698,46	131,00
-17655,28	134,00
-17612,22	126,00
-17569,29	94,00
-17526,48	229,00
-17483,79	206,00
-17441,23	47,00
-17398,79	140,00
-17356,48	242,00
-17314,28	232,00
-17272,21	237,00
-17230,26	104,00
-17188,42	195,00
-17146,71	166,00
-17105,12	144,00
-17063,64	135,00
-17022,28	117,00
-16981,04	292,00
-16939,92	113,00
-16898,91	190,00
-16858,02	132,00
-16817,25	55,00
-16776,59	252,00
-16736,04	58,00
-16695,61	156,00
-16655,29	120,00
-16615,09	128,00
-16574,99	174,00
-16535,01	123,00
-16495,15	156,00
-16455,39	206,00
-16415,74	79,00
-16376,21	119,00
-16336,78	82,00
-16297,46	204,00
-16258,26	110,00
-16219,16	235,00
-16180,17	153,00
-16141,28	47,00
-16102,51	190,00
-16063,84	246,00
-16025,27	175,00
-15986,82	151,00
-15948,46	155,00
-15910,22	182,00
-15872,07	152,00
-15834,04	85,00
-15796,10	173,00
-15758,27	201,00
-15720,54	130,00
-15682,91	138,00
-15645,39	155,00
-15607,97	168,00
-15570,64	124,00
-15533,42	212,00
-15496,30	63,00
-15459,28	247,00
-15422,36	138,00
-15385,54	143,00
-15348,82	114,00
-15312,19	145,00
-15275,66	152,00
-15239,23	92,00
-15202,90	118,00
-15166,67	80,00
-15130,53	28,00
-15094,48	107,00
-15058,54	213,00
-15022,68	248,00
-14986,93	212,00
-14951,26	119,00
-14915,69	134,00
-14880,22	187,00
-14844,84	74,00
-14809,55	238,00
-14774,35	130,00
-14739,25	186,00
-14704,24	30,00
-14669,32	149,00
-14634,49	102,00
-14599,75	183,00
-14565,10	122,00
-14530,55	55,00
-14496,08	128,00
-14461,70	116,00
-14427,41	51,00
-14393,21	76,00
-14359,10	64,00
-14325,07	114,00
-14291,14	192,00
-14257,29	99,00
-14223,52	233,00
-14189,85	73,00
-14156,26	197,00
-14122,76	115,00
-14089,34	161,00
-14056,01	106,00
-14022,76	120,00
-13989,60	128,00
-13956,52	85,00
-13923,53	135,00
-13890,62	178,00
-13857,79	71,00
-13825,05	104,00
-13792,39	216,00
-13759,81	157,00
-13727,31	105,00
-13694,90	164,00
-13662,57	185,00
-13630,31	36,00
-13598,14	179,00
-13566,05	49,00
-13534,05	96,00
-13502,12	153,00
-13470,27	199,00
-13438,50	131,00
-13406,80	148,00
-13375,19	188,00
-13343,66	92,00
-13312,20	163,00
-13280,83	171,00
-13249,53	204,00
-13218,30	77,00
-13187,16	228,00
-13156,09	128,00
-13125,10	142,00
-13094,18	96,00
-13063,34	177,00
-13032,58	178,00
-13001,89	197,00
-12971,28	130,00
-12940,74	55,00
-12910,27	175,00
-12879,88	146,00
-12849,57	128,00
-12819,33	110,00
-12789,16	228,00
-12759,06	164,00
-12729,04	217,00
-12699,09	-667,00
-12669,21	103,00
-12639,41	104,00
-12609,68	124,00
-12580,02	89,00
-12550,43	55,00
-12520,91	65,00
-12491,46	97,00
-12462,08	109,00
-12432,77	135,00
-12403,54	122,00
-12374,37	195,00
-12345,27	142,00
-12316,24	178,00
-12287,29	220,00
-12258,40	177,00
-12229,57	250,00
-12200,82	202,00
-12172,14	108,00
-12143,52	233,00
-12114,97	153,00
-12086,49	144,00
-12058,07	175,00
-12029,73	224,00
-12001,44	245,00
-11973,23	76,00
-11945,08	115,00
-11917,00	247,00
-11888,98	153,00
-11861,03	94,00
-11833,15	151,00
-11805,32	189,00
-11777,57	125,00
-11749,88	189,00
-11722,25	91,00
-11694,69	140,00
-11667,19	77,00
-11639,75	190,00
-11612,38	195,00
-11585,07	121,00
-11557,83	139,00
-11530,65	123,00
-11503,53	143,00
-11476,47	131,00
-11449,48	59,00
-11422,54	110,00
-11395,67	247,00
-11368,86	188,00
-11342,11	113,00
-11315,43	86,00
-11288,80	204,00
-11262,23	160,00
-11235,73	82,00
-11209,28	161,00
-11182,90	209,00
-11156,57	229,00
-11130,31	187,00
-11104,10	150,00
-11077,96	178,00
-11051,87	91,00
-11025,84	134,00
-10999,87	140,00
-10973,96	60,00
-10948,11	194,00
-10922,31	155,00
-10896,58	153,00
-10870,90	122,00
-10845,28	250,00
-10819,71	158,00
-10794,20	162,00
-10768,75	120,00
-10743,36	127,00
-10718,02	113,00
-10692,74	217,00
-10667,52	150,00
-10642,35	163,00
-10617,24	50,00
-10592,18	160,00
-10567,18	86,00
-10542,23	144,00
-10517,34	200,00
-10492,51	174,00
-10467,72	209,00
-10443,00	148,00
-10418,32	269,00
-10393,70	163,00
-10369,14	101,00
-10344,63	212,00
-10320,17	261,00
-10295,77	271,00
-10271,42	85,00
-10247,12	246,00
-10222,88	195,00
-10198,68	222,00
-10174,54	219,00
-10150,46	103,00
-10126,42	163,00
-10102,44	155,00
-10078,51	125,00
-10054,63	110,00
-10030,80	220,00
-10007,03	299,00
-9983,30	162,00
-9959,63	245,00
-9936,01	203,00
-9912,44	155,00
-9888,92	140,00
-9865,44	174,00
-9842,02	234,00
-9818,65	193,00
-9795,33	326,00
-9772,06	256,00
-9748,84	204,00
-9725,67	165,00
-9702,55	454,00
-9679,47	301,00
-9656,45	208,00
-9633,47	164,00
-9610,55	316,00
-9587,67	385,00
-9564,84	361,00
-9542,06	433,00
-9519,32	472,00
-9496,64	409,00
-9474,00	468,00
-9451,41	434,00
-9428,87	417,00
-9406,37	438,00
-9383,92	351,00
-9361,52	517,00
-9339,17	457,00
-9316,86	444,00
-9294,60	418,00
-9272,38	552,00
-9250,21	751,00
-9228,09	737,00
-9206,01	736,00
-9183,98	654,00
-9162,00	570,00
-9140,06	466,00
-9118,16	470,00
-9096,31	490,00
-9074,51	528,00
-9052,75	704,00
-9031,04	578,00
-9009,37	556,00
-8987,74	395,00
-8966,16	364,00
-8944,63	423,00
-8923,14	414,00
-8901,69	359,00
-8880,29	537,00
-8858,93	562,00
-8837,61	609,00
-8816,34	555,00
-8795,11	724,00
-8773,92	499,00
-8752,78	403,00
-8731,68	556,00
-8710,62	495,00
-8689,61	502,00
-8668,63	518,00
-8647,70	641,00
-8626,82	649,00
-8605,97	605,00
-8585,17	575,00
-8564,41	412,00
-8543,69	507,00
-8523,01	474,00
-8502,37	460,00
-8481,78	541,00
-8461,23	630,00
-8440,71	514,00
-8420,24	558,00
-8399,81	572,00
-8379,42	727,00
-8359,08	558,00
-8338,77	510,00
-8318,50	454,00
-8298,27	506,00
-8278,09	480,00
-8257,94	417,00
-8237,83	676,00
-8217,76	614,00
-8197,74	585,00
-8177,75	660,00
-8157,80	670,00
-8137,89	527,00
-8118,02	427,00
-8098,19	581,00
-8078,40	592,00
-8058,65	518,00
-8038,93	588,00
-8019,26	448,00
-7999,62	451,00
-7980,02	478,00
-7960,46	474,00
-7940,94	518,00
-7921,46	470,00
-7902,01	486,00
-7882,60	353,00
-7863,23	461,00
-7843,90	482,00
-7824,61	413,00
-7805,35	646,00
-7786,13	428,00
-7766,95	575,00
-7747,80	430,00
-7728,69	409,00
-7709,62	502,00
-7690,59	525,00
-7671,59	575,00
-7652,63	554,00
-7633,70	535,00
-7614,81	608,00
-7595,96	497,00
-7577,15	422,00
-7558,37	510,00
-7539,62	475,00
-7520,91	436,00
-7502,24	588,00
-7483,60	550,00
-7465,00	476,00
-7446,44	417,00
-7427,91	388,00
-7409,41	242,00
-7390,95	395,00
-7372,53	355,00
-7354,14	245,00
-7335,78	258,00
-7317,46	331,00
-7299,18	370,00
-7280,92	379,00
-7262,71	461,00
-7244,52	501,00
-7226,38	462,00
-7208,26	519,00
-7190,18	476,00
-7172,14	387,00
-7154,12	473,00
-7136,15	493,00
-7118,20	458,00
-7100,29	554,00
-7082,41	551,00
-7064,57	485,00
-7046,76	442,00
-7028,98	380,00
-7011,24	238,00
-6993,53	264,00
-6975,85	341,00
-6958,20	286,00
-6940,59	215,00
-6923,01	305,00
-6905,46	341,00
-6887,94	230,00
-6870,46	2980,00
-6853,01	530,00
-6835,59	444,00
-6818,21	356,00
-6800,85	402,00
-6783,53	303,00
-6766,24	190,00
-6748,98	237,00
-6731,76	193,00
-6714,56	154,00
-6697,40	207,00
-6680,26	121,00
-6663,16	278,00
-6646,09	332,00
-6629,05	274,00
-6612,05	478,00
-6595,07	327,00
-6578,13	451,00
-6561,21	300,00
-6544,33	270,00
-6527,47	58,00
-6510,65	219,00
-6493,86	153,00
-6477,10	29,00
-6460,36	294,00
-6443,66	136,00
-6426,99	153,00
-6410,35	185,00
-6393,74	254,00
-6377,16	250,00
-6360,61	302,00
-6344,09	401,00
-6327,59	229,00
-6311,13	203,00
-6294,70	267,00
-6278,29	283,00
-6261,92	409,00
-6245,58	288,00
-6229,26	373,00
-6212,97	248,00
-6196,72	375,00
-6180,49	261,00
-6164,29	94,00
-6148,12	170,00
-6131,98	123,00
-6115,86	213,00
-6099,78	89,00
-6083,72	98,00
-6067,69	51,00
-6051,69	160,00
-6035,72	22,00
-6019,78	251,00
-6003,87	164,00
-5987,98	145,00
-5972,12	245,00
-5956,29	206,00
-5940,49	366,00
-5924,71	216,00
-5908,96	78,00
-5893,24	120,00
-5877,55	145,00
-5861,89	65,00
-5846,25	60,00
-5830,64	201,00
-5815,05	-1,00
-5799,50	168,00
-5783,97	121,00
-5768,47	287,00
-5752,99	260,00
-5737,55	309,00
-5722,12	296,00
-5706,73	296,00
-5691,36	285,00
-5676,02	130,00
-5660,71	159,00
-5645,42	168,00
-5630,16	219,00
-5614,92	162,00
-5599,71	183,00
-5584,53	113,00
-5569,37	218,00
-5554,24	192,00
-5539,14	272,00
-5524,06	154,00
-5509,01	174,00
-5493,98	304,00
-5478,98	252,00
-5464,00	161,00
-5449,05	253,00
-5434,13	180,00
-5419,23	192,00
-5404,36	97,00
-5389,51	129,00
-5374,69	150,00
-5359,89	300,00
-5345,12	350,00
-5330,37	204,00
-5315,65	336,00
-5300,95	283,00
-5286,28	270,00
-5271,63	132,00
-5257,01	150,00
-5242,41	93,00
-5227,84	151,00
-5213,29	243,00
-5198,76	79,00
-5184,26	141,00
-5169,79	92,00
-5155,33	122,00
-5140,91	103,00
-5126,51	199,00
-5112,13	222,00
-5097,77	147,00
-5083,44	147,00
-5069,13	147,00
-5054,85	131,00
-5040,59	278,00
-5026,36	165,00
-5012,15	154,00
-4997,96	259,00
-4983,80	247,00
-4969,66	206,00
-4955,54	93,00
-4941,44	218,00
-4927,37	258,00
-4913,33	397,00
-4899,30	377,00
-4885,30	296,00
-4871,33	227,00
-4857,37	234,00
-4843,44	117,00
-4829,53	156,00
-4815,65	277,00
-4801,79	146,00
-4787,95	42,00
-4774,13	76,00
-4760,34	181,00
-4746,56	-27,00
-4732,82	165,00
-4719,09	98,00
-4705,38	305,00
-4691,70	316,00
-4678,04	289,00
-4664,41	224,00
-4650,79	236,00
-4637,20	194,00
-4623,63	175,00
-4610,08	155,00
-4596,56	120,00
-4583,05	212,00
-4569,57	191,00
-4556,11	161,00
-4542,67	143,00
-4529,25	81,00
-4515,86	162,00
-4502,49	250,00
-4489,13	264,00
-4475,80	238,00
-4462,49	182,00
-4449,21	252,00
-4435,94	115,00
-4422,70	219,00
-4409,47	312,00
-4396,27	240,00
-4383,09	271,00
-4369,93	181,00
-4356,79	147,00
-4343,67	164,00
-4330,58	199,00
-4317,50	226,00
-4304,45	163,00
-4291,41	175,00
-4278,40	186,00
-4265,41	150,00
-4252,44	285,00
-4239,49	254,00
-4226,55	266,00
-4213,65	154,00
-4200,76	183,00
-4187,89	201,00
-4175,04	235,00
-4162,21	124,00
-4149,40	173,00
-4136,61	88,00
-4123,85	172,00
-4111,10	137,00
-4098,37	131,00
-4085,66	129,00
-4072,98	158,00
-4060,31	214,00
-4047,66	53,00
-4035,04	232,00
-4022,43	60,00
-4009,84	107,00
-3997,27	86,00
-3984,72	223,00
-3972,19	116,00
-3959,69	105,00
-3947,20	95,00
-3934,73	155,00
-3922,27	202,00
-3909,84	60,00
-3897,43	241,00
-3885,04	252,00
-3872,67	107,00
-3860,31	229,00
-3847,98	167,00
-3835,66	282,00
-3823,36	126,00
-3811,09	168,00
-3798,83	162,00
-3786,59	107,00
-3774,37	101,00
-3762,17	147,00
-3749,98	164,00
-3737,82	192,00
-3725,67	111,00
-3713,55	87,00
-3701,44	158,00
-3689,35	174,00
-3677,28	244,00
-3665,22	188,00
-3653,19	44,00
-3641,17	206,00
-3629,18	165,00
-3617,20	35,00
-3605,24	294,00
-3593,30	243,00
-3581,37	108,00
-3569,47	160,00
-3557,58	90,00
-3545,71	157,00
-3533,86	163,00
-3522,02	162,00
-3510,21	53,00
-3498,41	13,00
-3486,63	107,00
-3474,87	103,00
-3463,12	91,00
-3451,40	210,00
-3439,69	152,00
-3428,00	159,00
-3416,33	114,00
-3404,67	153,00
-3393,03	132,00
-3381,41	52,00
-3369,81	175,00
-3358,22	123,00
-3346,66	236,00
-3335,10	252,00
-3323,57	192,00
-3312,06	261,00
-3300,56	155,00
-3289,08	164,00
-3277,61	36,00
-3266,16	124,00
-3254,73	178,00
-3243,32	86,00
-3231,92	106,00
-3220,55	110,00
-3209,18	289,00
-3197,84	180,00
-3186,51	89,00
-3175,20	103,00
-3163,90	123,00
-3152,63	149,00
-3141,36	136,00
-3130,12	129,00
-3118,89	238,00
-3107,68	181,00
-3096,49	170,00
-3085,31	192,00
-3074,15	123,00
-3063,00	196,00
-3051,87	194,00
-3040,76	134,00
-3029,67	177,00
-3018,59	185,00
-3007,52	158,00
-2996,48	35,00
-2985,44	291,00
-2974,43	179,00
-2963,43	76,00
-2952,45	186,00
-2941,48	204,00
-2930,53	273,00
-2919,60	152,00
-2908,68	118,00
-2897,78	147,00
-2886,89	92,00
-2876,02	82,00
-2865,17	172,00
-2854,33	171,00
-2843,50	78,00
-2832,70	264,00
-2821,90	178,00
-2811,13	91,00
-2800,37	195,00
-2789,62	149,00
-2778,89	255,00
-2768,18	129,00
-2757,48	183,00
-2746,80	139,00
-2736,13	102,00
-2725,48	172,00
-2714,84	118,00
-2704,22	89,00
-2693,61	208,00
-2683,02	214,00
-2672,45	163,00
-2661,89	169,00
-2651,34	141,00
-2640,81	93,00
-2630,30	126,00
-2619,80	180,00
-2609,31	99,00
-2598,84	141,00
-2588,39	160,00
-2577,95	130,00
-2567,52	94,00
-2557,11	105,00
-2546,71	160,00
-2536,33	96,00
-2525,97	80,00
-2515,62	101,00
-2505,28	257,00
-2494,96	39,00
-2484,65	90,00
-2474,36	289,00
-2464,08	206,00
-2453,82	186,00
-2443,57	129,00
-2433,33	229,00
-2423,11	108,00
-2412,91	156,00
-2402,72	117,00
-2392,54	105,00
-2382,38	184,00
-2372,23	189,00
-2362,09	-142,00
-2351,97	82,00
-2341,87	223,00
-2331,78	117,00
-2321,70	183,00
-2311,64	179,00
-2301,59	315,00
-2291,55	97,00
-2281,53	92,00
-2271,53	58,00
-2261,53	115,00
-2251,55	221,00
-2241,59	41,00
-2231,64	310,00
-2221,70	243,00
-2211,78	101,00
-2201,87	163,00
-2191,97	187,00
-2182,09	76,00
-2172,22	117,00
-2162,37	14,00
-2152,53	95,00
-2142,70	64,00
-2132,89	124,00
-2123,09	81,00
-2113,30	172,00
-2103,53	125,00
-2093,77	41,00
-2084,02	159,00
-2074,29	139,00
-2064,57	70,00
-2054,86	107,00
-2045,17	30,00
-2035,49	118,00
-2025,82	116,00
-2016,17	115,00
-2006,53	118,00
-1996,91	130,00
-1987,29	-5,00
-1977,69	225,00
-1968,11	174,00
-1958,53	85,00
-1948,97	181,00
-1939,42	69,00
-1929,89	119,00
-1920,37	147,00
-1910,86	101,00
-1901,36	161,00
-1891,88	189,00
-1882,41	189,00
-1872,95	50,00
-1863,51	259,00
-1854,08	166,00
-1844,66	275,00
-1835,26	93,00
-1825,86	159,00
-1816,48	192,00
-1807,11	159,00
-1797,76	15,00
-1788,42	219,00
-1779,09	161,00
-1769,77	303,00
-1760,47	126,00
-1751,17	138,00
-1741,89	203,00
-1732,63	128,00
-1723,37	204,00
-1714,13	160,00
-1704,90	121,00
-1695,68	161,00
-1686,48	158,00
-1677,29	201,00
-1668,11	206,00
-1658,94	222,00
-1649,78	128,00
-1640,64	51,00
-1631,51	200,00
-1622,39	-25,00
-1613,28	213,00
-1604,19	169,00
-1595,10	184,00
-1586,03	77,00
-1576,97	161,00
-1567,93	186,00
-1558,89	139,00
-1549,87	80,00
-1540,86	131,00
-1531,86	213,00
-1522,87	105,00
-1513,90	84,00
-1504,93	118,00
-1495,98	132,00
-1487,04	70,00
-1478,12	352,00
-1469,20	181,00
-1460,30	153,00
-1451,40	216,00
-1442,52	120,00
-1433,65	196,00
-1424,80	136,00
-1415,95	133,00
-1407,12	264,00
-1398,30	145,00
-1389,48	52,00
-1380,69	92,00
-1371,90	76,00
-1363,12	62,00
-1354,36	249,00
-1345,60	147,00
-1336,86	174,00
-1328,13	186,00
-1319,41	193,00
-1310,70	130,00
-1302,01	163,00
-1293,32	85,00
-1284,65	11,00
-1275,99	231,00
-1267,33	144,00
-1258,69	255,00
-1250,06	177,00
-1241,45	290,00
-1232,84	121,00
-1224,25	151,00
-1215,66	123,00
-1207,09	117,00
-1198,53	142,00
-1189,97	80,00
-1181,43	158,00
-1172,91	146,00
-1164,39	243,00
-1155,88	102,00
-1147,38	245,00
-1138,90	216,00
-1130,43	158,00
-1121,96	190,00
-1113,51	173,00
-1105,07	245,00
-1096,64	219,00
-1088,22	226,00
-1079,81	149,00
-1071,41	169,00
-1063,02	146,00
-1054,65	85,00
-1046,28	129,00
-1037,92	164,00
-1029,58	64,00
-1021,24	140,00
-1012,92	214,00
-1004,61	174,00
-996,30	339,00
-988,01	172,00
-979,73	191,00
-971,46	210,00
-963,20	69,00
-954,95	171,00
-946,71	157,00
-938,48	88,00
-930,26	170,00
-922,06	199,00
-913,86	175,00
-905,67	138,00
-897,49	198,00
-889,33	67,00
-881,17	76,00
-873,02	210,00
-864,89	95,00
-856,76	134,00
-848,65	177,00
-840,54	212,00
-832,45	183,00
-824,36	150,00
-816,29	154,00
-808,22	99,00
-800,17	231,00
-792,12	286,00
-784,09	126,00
-776,06	131,00
-768,05	121,00
-760,04	301,00
-752,05	188,00
-744,07	109,00
-736,09	86,00
-728,13	206,00
-720,17	90,00
-712,23	117,00
-704,29	148,00
-696,37	138,00
-688,45	151,00
-680,55	208,00
-672,65	202,00
-664,77	174,00
-656,89	128,00
-649,03	69,00
-641,17	107,00
-633,32	251,00
-625,49	144,00
-617,66	173,00
-609,84	195,00
-602,03	124,00
-594,23	91,00
-586,45	158,00
-578,67	141,00
-570,90	193,00
-563,14	164,00
-555,39	144,00
-547,65	125,00
-539,91	11,00
-532,19	279,00
-524,48	123,00
-516,78	80,00
-509,08	139,00
-501,40	92,00
-493,72	151,00
-486,06	140,00
-478,40	184,00
-470,76	265,00
-463,12	69,00
-455,49	188,00
-447,87	193,00
-440,26	178,00
-432,66	156,00
-425,07	202,00
-417,49	165,00
-409,92	125,00
-402,35	166,00
-394,80	200,00
-387,25	212,00
-379,72	173,00
-372,19	197,00
-364,67	227,00
-357,17	245,00
-349,67	201,00
-342,18	289,00
-334,69	181,00
-327,22	233,00
-319,76	196,00
-312,30	199,00
-304,86	235,00
-297,42	316,00
-290,00	294,00
-282,58	229,00
-275,17	285,00
-267,77	237,00
-260,37	336,00
-252,99	125,00
-245,62	275,00
-238,25	125,00
-230,90	255,00
-223,55	310,00
-216,21	335,00
-208,88	462,00
-201,56	431,00
-194,25	417,00
-186,94	547,00
-179,65	573,00
-172,36	555,00
-165,08	663,00
-157,81	714,00
-150,55	692,00
-143,30	879,00
-136,06	679,00
-128,82	955,00
-121,60	1017,00
-114,38	1058,00
-107,17	1241,00
-99,97	1305,00
-92,78	1586,00
-85,60	1620,00
-78,42	1977,00
-71,25	2230,00
-64,10	2548,00
-56,95	3118,00
-49,81	3553,00
-42,67	4434,00
-35,55	5528,00
-28,43	7179,00
-21,33	11644,00
-14,23	36693,00
-7,14	56043,00
-0,05	55763,00
7,02	55513,00
14,09	55717,00
21,14	36520,00
28,19	15813,00
35,23	9722,00
42,27	7069,00
49,29	5904,00
56,31	5041,00
63,32	3970,00
70,32	3383,00
77,31	2968,00
84,29	2548,00
91,27	2220,00
98,23	2128,00
105,19	1944,00
112,14	1803,00
119,09	2109,00
126,02	2632,00
132,95	2808,00
139,87	2801,00
146,78	2680,00
153,68	2582,00
160,58	2475,00
167,46	2448,00
174,34	2350,00
181,21	2331,00
188,08	2360,00
194,93	2221,00
201,78	2341,00
208,62	2330,00
215,45	2221,00
222,27	2225,00
229,09	2241,00
235,90	2173,00
242,70	2134,00
249,49	2232,00
256,27	1965,00
263,05	2010,00
269,82	2061,00
276,58	2000,00
283,33	1921,00
290,08	2020,00
296,82	1876,00
303,55	1937,00
310,27	1949,00
316,98	1783,00
323,69	1819,00
330,39	1807,00
337,08	1856,00
343,76	1874,00
350,44	1829,00
357,11	1902,00
363,77	1709,00
370,42	1809,00
377,07	1600,00
383,71	1821,00
390,34	1733,00
396,96	1754,00
403,58	1765,00
410,19	1700,00
416,79	1785,00
423,38	1981,00
429,97	1872,00
436,55	1496,00
443,12	1621,00
449,68	1513,00
456,24	1522,00
462,79	1507,00
469,33	1489,00
475,86	1541,00
482,39	1612,00
488,91	1613,00
495,42	1477,00
501,93	1469,00
508,42	1446,00
514,91	1465,00
521,40	1438,00
527,87	1405,00
534,34	1288,00
540,80	1344,00
547,25	1357,00
553,70	1416,00
560,14	1377,00
566,57	1395,00
573,00	1338,00
579,41	1350,00
585,83	1421,00
592,23	1457,00
598,62	1258,00
605,01	1320,00
611,40	1403,00
617,77	1413,00
624,14	1256,00
630,50	1331,00
636,85	1302,00
643,20	1285,00
649,54	1333,00
655,87	1308,00
662,20	1374,00
668,52	1212,00
674,83	1339,00
681,13	1354,00
687,43	1158,00
693,72	1186,00
700,00	1244,00
706,28	1369,00
712,55	1233,00
718,81	1237,00
725,07	1233,00
731,32	1288,00
737,56	1336,00
743,79	1417,00
750,02	1303,00
756,24	1300,00
762,46	1275,00
768,67	1177,00
774,87	1222,00
781,06	1385,00
787,25	1194,00
793,43	1275,00
799,60	1167,00
805,77	1264,00
811,93	1217,00
818,08	1307,00
824,23	1316,00
830,37	1397,00
836,50	1162,00
842,63	1345,00
848,75	1294,00
854,87	1278,00
860,97	1267,00
867,07	1348,00
873,17	1279,00
879,25	1089,00
885,33	1304,00
891,41	1353,00
897,47	1179,00
903,53	1169,00
909,59	1053,00
915,63	1260,00
921,67	1129,00
927,71	1198,00
933,74	1165,00
939,76	1166,00
945,77	1070,00
951,78	1131,00
957,78	1059,00
963,78	1128,00
969,77	1136,00
975,75	1071,00
981,72	1150,00
987,69	1359,00
993,66	1055,00
999,61	1093,00
1005,56	1141,00
1011,51	1162,00
1017,44	1069,00
1023,37	1098,00
1029,30	1078,00
1035,22	1232,00
1041,13	1041,00
1047,03	1219,00
1052,93	1332,00
1058,83	1460,00
1064,71	1610,00
1070,59	1465,00
1076,47	1249,00
1082,33	1157,00
1088,20	1164,00
1094,05	1147,00
1099,90	1122,00
1105,74	1132,00
1111,58	1129,00
1117,41	1176,00
1123,23	1235,00
1129,05	1540,00
1134,86	1394,00
1140,67	1253,00
1146,47	1096,00
1152,26	1167,00
1158,05	1054,00
1163,83	1092,00
1169,60	1092,00
1175,37	939,00
1181,13	976,00
1186,89	1020,00
1192,64	1049,00
1198,38	1065,00
1204,12	998,00
1209,85	1013,00
1215,58	946,00
1221,30	1118,00
1227,02	948,00
1232,72	1074,00
1238,43	1011,00
1244,12	987,00
1249,81	1007,00
1255,50	1059,00
1261,17	1038,00
1266,85	1132,00
1272,51	1156,00
1278,17	1045,00
1283,83	1274,00
1289,47	1506,00
1295,12	1723,00
1300,75	1735,00
1306,38	1634,00
1312,01	1346,00
1317,63	1271,00
1323,24	1246,00
1328,85	1141,00
1334,45	1244,00
1340,04	1205,00
1345,63	1243,00
1351,22	1191,00
1356,80	1148,00
1362,37	1412,00
1367,93	1362,00
1373,49	1269,00
1379,05	1468,00
1384,60	1285,00
1390,14	1193,00
1395,68	1264,00
1401,21	1270,00
1406,74	1410,00
1412,26	1286,00
1417,77	1525,00
1423,28	1516,00
1428,78	1623,00
1434,28	1819,00
1439,77	1941,00
1445,26	1930,00
1450,74	1903,00
1456,22	1823,00
1461,68	1662,00
1467,15	1656,00
1472,61	1537,00
1478,06	1385,00
1483,51	1291,00
1488,95	1252,00
1494,38	1264,00
1499,81	1167,00
1505,24	1179,00
1510,65	1067,00
1516,07	1004,00
1521,48	1049,00
1526,88	1073,00
1532,27	1083,00
1537,67	948,00
1543,05	1094,00
1548,43	1087,00
1553,81	1069,00
1559,18	769,00
1564,54	1054,00
1569,90	1061,00
1575,25	856,00
1580,60	1036,00
1585,94	1131,00
1591,28	960,00
1596,61	966,00
1601,93	1132,00
1607,25	1003,00
1612,57	1028,00
1617,88	946,00
1623,18	1019,00
1628,48	915,00
1633,77	983,00
1639,06	1065,00
1644,34	884,00
1649,62	1014,00
1654,89	894,00
1660,16	853,00
1665,42	956,00
1670,67	872,00
1675,92	946,00
1681,17	898,00
1686,41	936,00
1691,64	821,00
1696,87	937,00
1702,10	846,00
1707,32	925,00
1712,53	981,00
1717,74	868,00
1722,94	960,00
1728,14	862,00
1733,33	825,00
1738,52	786,00
1743,70	690,00
1748,88	914,00
1754,05	768,00
1759,22	848,00
1764,38	863,00
1769,53	781,00
1774,69	773,00
1779,83	759,00
1784,97	858,00
1790,11	748,00
1795,24	825,00
1800,36	688,00
1805,48	839,00
1810,60	833,00
1815,71	758,00
1820,82	737,00
1825,92	676,00
1831,01	696,00
1836,10	877,00
1841,19	762,00
1846,26	698,00
1851,34	641,00
1856,41	763,00
1861,47	745,00
1866,53	748,00
1871,59	681,00
1876,64	672,00
1881,68	755,00
1886,72	668,00
1891,76	628,00
1896,79	698,00
1901,81	556,00
1906,83	655,00
1911,85	686,00
1916,86	745,00
1921,86	731,00
1926,86	767,00
1931,86	611,00
1936,85	623,00
1941,83	615,00
1946,81	658,00
1951,79	724,00
1956,76	669,00
1961,72	593,00
1966,68	684,00
1971,64	581,00
1976,59	558,00
1981,54	622,00
1986,48	656,00
1991,42	521,00
1996,35	564,00
2001,27	608,00
2006,20	538,00
2011,11	540,00
2016,03	594,00
2020,93	541,00
2025,84	470,00
2030,73	616,00
2035,63	519,00
2040,52	577,00
2045,40	523,00
2050,28	558,00
2055,15	477,00
2060,02	541,00
2064,89	641,00
2069,75	476,00
2074,60	586,00
2079,46	498,00
2084,30	549,00
2089,14	590,00
2093,98	456,00
2098,81	544,00
2103,64	612,00
2108,46	590,00
2113,28	690,00
2118,09	582,00
2122,90	626,00
2127,70	611,00
2132,50	599,00
2137,30	454,00
2142,09	536,00
2146,87	621,00
2151,66	529,00
2156,43	497,00
2161,20	535,00
2165,97	488,00
2170,73	482,00
2175,49	492,00
2180,24	545,00
2184,99	528,00
2189,74	609,00
2194,48	483,00
2199,21	562,00
2203,94	453,00
2208,67	600,00
2213,39	498,00
2218,11	479,00
2222,82	482,00
2227,53	428,00
2232,23	533,00
2236,93	632,00
2241,63	469,00
2246,32	521,00
2251,00	555,00
2255,68	506,00
2260,36	570,00
2265,03	432,00
2269,70	418,00
2274,36	457,00
2279,02	590,00
2283,68	394,00
2288,33	492,00
2292,97	528,00
2297,61	415,00
2302,25	403,00
2306,88	483,00
2311,51	465,00
2316,14	447,00
2320,75	497,00
2325,37	462,00
2329,98	505,00
2334,59	463,00
2339,19	408,00
2343,79	395,00
2348,38	475,00
2352,97	474,00
2357,55	410,00
2362,13	479,00
2366,71	415,00
2371,28	530,00
2375,85	423,00
2380,41	464,00
2384,97	439,00
2389,52	369,00
2394,07	423,00
2398,62	409,00
2403,16	450,00
2407,70	347,00
2412,23	396,00
2416,76	465,00
2421,29	348,00
2425,81	265,00
2430,32	490,00
2434,84	380,00
2439,34	359,00
2443,85	422,00
2448,35	462,00
2452,84	428,00
2457,33	394,00
2461,82	476,00
2466,30	497,00
2470,78	384,00
2475,25	444,00
2479,72	407,00
2484,19	443,00
2488,65	404,00
2493,11	356,00
2497,56	435,00
2502,01	296,00
2506,46	440,00
2510,90	345,00
2515,34	413,00
2519,77	398,00
2524,20	359,00
2528,62	544,00
2533,04	313,00
2537,46	378,00
2541,87	383,00
2546,28	400,00
2550,68	409,00
2555,08	384,00
2559,48	418,00
2563,87	295,00
2568,26	427,00
2572,64	322,00
2577,02	475,00
2581,40	368,00
2585,77	297,00
2590,14	381,00
2594,50	392,00
2598,86	344,00
2603,22	276,00
2607,57	301,00
2611,92	306,00
2616,26	284,00
2620,60	394,00
2624,94	405,00
2629,27	302,00
2633,60	333,00
2637,92	348,00
2642,24	385,00
2646,56	442,00
2650,87	381,00
2655,18	432,00
2659,48	351,00
2663,78	310,00
2668,08	361,00
2672,37	343,00
2676,66	403,00
2680,95	420,00
2685,23	395,00
2689,50	299,00
2693,78	310,00
2698,05	444,00
2702,31	302,00
2706,57	458,00
2710,83	429,00
2715,08	512,00
2719,33	454,00
2723,58	471,00
2727,82	449,00
2732,06	420,00
2736,29	396,00
2740,53	408,00
2744,75	461,00
2748,97	505,00
2753,19	558,00
2757,41	448,00
2761,62	377,00
2765,83	451,00
2770,03	310,00
2774,23	321,00
2778,43	358,00
2782,62	346,00
2786,81	418,00
2791,00	415,00
2795,18	539,00
2799,35	456,00
2803,53	419,00
2807,70	458,00
2811,86	463,00
2816,03	455,00
2820,19	435,00
2824,34	502,00
2828,49	594,00
2832,64	543,00
2836,78	787,00
2840,92	835,00
2845,06	1057,00
2849,19	1174,00
2853,32	1336,00
2857,45	1227,00
2861,57	1197,00
2865,69	1195,00
2869,80	1075,00
2873,91	1092,00
2878,02	1248,00
2882,12	1295,00
2886,22	1316,00
2890,32	1321,00
2894,41	1156,00
2898,50	1062,00
2902,58	1096,00
2906,67	1079,00
2910,74	1015,00
2914,82	916,00
2918,89	851,00
2922,96	889,00
2927,02	829,00
2931,08	797,00
2935,13	622,00
2939,19	756,00
2943,24	628,00
2947,28	612,00
2951,32	480,00
2955,36	577,00
2959,40	389,00
2963,43	399,00
2967,46	293,00
2971,48	452,00
2975,50	444,00
2979,52	352,00
2983,53	431,00
2987,54	340,00
2991,55	305,00
2995,55	337,00
2999,55	244,00
3003,54	266,00
3007,54	176,00
3011,53	201,00
3015,51	242,00
3019,49	413,00
3023,47	211,00
3027,45	268,00
3031,42	347,00
3035,39	252,00
3039,35	207,00
3043,31	197,00
3047,27	321,00
3051,22	148,00
3055,17	280,00
3059,12	205,00
3063,06	253,00
3067,00	301,00
3070,94	315,00
3074,87	255,00
3078,80	156,00
3082,73	270,00
3086,65	309,00
3090,57	223,00
3094,49	289,00
3098,40	219,00
3102,31	127,00
3106,22	198,00
3110,12	175,00
3114,02	140,00
3117,92	260,00
3121,81	252,00
3125,70	316,00
3129,58	278,00
3133,47	271,00
3137,34	189,00
3141,22	177,00
3145,09	178,00
3148,96	93,00
3152,83	314,00
3156,69	245,00
3160,55	271,00
3164,40	271,00
3168,26	223,00
3172,10	266,00
3175,95	265,00
3179,79	257,00
3183,63	320,00
3187,47	242,00
3191,30	95,00
3195,13	204,00
3198,95	168,00
3202,78	269,00
3206,60	295,00
3210,41	156,00
3214,23	182,00
3218,03	182,00
3221,84	153,00
3225,64	187,00
3229,44	166,00
3233,24	201,00
3237,03	179,00
3240,82	170,00
3244,61	223,00
3248,39	96,00
3252,17	257,00
3255,95	147,00
3259,72	237,00
3263,49	251,00
3267,26	218,00
3271,03	202,00
3274,79	207,00
3278,54	268,00
3282,30	191,00
3286,05	300,00
3289,80	235,00
3293,54	209,00
3297,29	221,00
3301,02	290,00
3304,76	225,00
3308,49	166,00
3312,22	186,00
3315,95	196,00
3319,67	207,00
3323,39	343,00
3327,10	241,00
3330,82	212,00
3334,53	190,00
3338,24	261,00
3341,94	180,00
3345,64	244,00
3349,34	254,00
3353,03	221,00
3356,72	254,00
3360,41	283,00
3364,10	167,00
3367,78	270,00
3371,46	215,00
3375,13	168,00
3378,81	264,00
3382,48	190,00
3386,14	168,00
3389,81	202,00
3393,47	232,00
3397,12	219,00
3400,78	182,00
3404,43	183,00
3408,08	167,00
3411,72	185,00
3415,36	194,00
3419,00	271,00
3422,64	240,00
3426,27	306,00
3429,90	244,00
3433,53	140,00
3437,15	88,00
3440,77	138,00
3444,39	210,00
3448,00	253,00
3451,62	107,00
3455,22	249,00
3458,83	131,00
3462,43	118,00
3466,03	185,00
3469,63	178,00
3473,22	129,00
3476,81	182,00
3480,40	63,00
3483,99	215,00
3487,57	256,00
3491,15	194,00
3494,72	182,00
3498,29	139,00
3501,86	168,00
3505,43	190,00
3508,99	115,00
3512,56	173,00
3516,11	296,00
3519,67	102,00
3523,22	177,00
3526,77	192,00
3530,32	75,00
3533,86	213,00
3537,40	124,00
3540,94	128,00
3544,47	102,00
3548,00	158,00
3551,53	160,00
3555,06	65,00
3558,58	184,00
3562,10	137,00
3565,62	254,00
3569,13	-15,00
3572,64	152,00
3576,15	132,00
3579,66	114,00
3583,16	250,00
3586,66	37,00
3590,16	98,00
3593,65	59,00
3597,14	73,00
3600,63	106,00
3604,11	205,00
3607,60	145,00
3611,08	125,00
3614,55	269,00
3618,03	112,00
3621,50	55,00
3624,97	109,00
3628,43	129,00
3631,90	136,00
3635,36	223,00
3638,81	117,00
3642,27	150,00
3645,72	201,00
3649,17	163,00
3652,61	44,00
3656,06	110,00
3659,50	47,00
3662,93	123,00
3666,37	128,00
3669,80	192,00
3673,23	200,00
3676,65	149,00
3680,08	105,00
3683,50	166,00
3686,92	181,00
3690,33	72,00
3693,74	172,00
3697,15	125,00
3700,56	98,00
3703,96	164,00
3707,36	86,00
3710,76	56,00
3714,16	212,00
3717,55	192,00
3720,94	145,00
3724,33	176,00
3727,71	109,00
3731,10	148,00
3734,48	164,00
3737,85	150,00
3741,23	62,00
3744,60	142,00
3747,97	145,00
3751,33	197,00
3754,69	134,00
3758,05	107,00
3761,41	132,00
3764,77	170,00
3768,12	57,00
3771,47	100,00
3774,82	219,00
3778,16	-1,00
3781,50	10,00
3784,84	4,00
3788,18	8,00
>>>>>End Processed Spectral Data<<<<<
