SpectraSuite Data File
++++++++++++++++++++++++++++++++++++
Date: Wed Feb 11 17:08:59 ICT 2026
User: Administrator
Dark Spectrum Present: Yes
Reference Spectrum Present: No
Number of Sampled Component Spectra: 1
Spectrometers: MAYP113682
Integration Time (usec): 3000000 (MAYP113682)
Spectra Averaged: 1 (MAYP113682)
Boxcar Smoothing: 0 (MAYP113682)
Correct for Electrical Dark: No (MAYP113682)
Strobe/Lamp Enabled: No (MAYP113682)
Correct for Detector Non-linearity: No (MAYP113682)
Correct for Stray Light: No (MAYP113682)
Number of Pixels in Processed Spectrum: 2068
>>>>>Begin Processed Spectral Data<<<<<
-37534,58	8,00
-37414,56	1,00
-37295,11	2,00
-37176,24	8,00
-37057,95	66,00
-36940,22	38,00
-36823,05	106,00
-36706,45	163,00
-36590,40	132,00
-36474,90	124,00
-36359,95	23,00
-36245,55	66,00
-36131,68	77,00
-36018,35	77,00
-35905,55	229,00
-35793,29	63,00
-35681,54	121,00
-35570,32	149,00
-35459,62	156,00
-35349,43	90,00
-35239,75	162,00
-35130,58	38,00
-35021,91	51,00
-34913,74	86,00
-34806,07	9,00
-34698,89	93,00
-34592,20	53,00
-34486,00	142,00
-34380,28	115,00
-34275,04	55,00
-34170,27	31,00
-34065,98	12,00
-33962,16	93,00
-33858,81	130,00
-33755,92	114,00
-33653,49	-76,00
-33551,52	71,00
-33450,01	49,00
-33348,94	88,00
-33248,33	39,00
-33148,16	102,00
-33048,43	110,00
-32949,14	84,00
-32850,29	62,00
-32751,87	144,00
-32653,89	43,00
-32556,33	-24,00
-32459,20	188,00
-32362,49	177,00
-32266,19	-10,00
-32170,32	158,00
-32074,86	46,00
-31979,82	113,00
-31885,18	-70,00
-31790,95	137,00
-31697,12	101,00
-31603,69	193,00
-31510,67	132,00
-31418,04	203,00
-31325,80	104,00
-31233,95	160,00
-31142,49	50,00
-31051,42	88,00
-30960,73	144,00
-30870,43	138,00
-30780,50	152,00
-30690,95	90,00
-30601,77	122,00
-30512,97	77,00
-30424,53	135,00
-30336,46	94,00
-30248,76	126,00
-30161,42	77,00
-30074,44	123,00
-29987,81	44,00
-29901,55	123,00
-29815,63	35,00
-29730,07	79,00
-29644,86	140,00
-29560,00	134,00
-29475,48	152,00
-29391,30	-28,00
-29307,47	7,00
-29223,97	131,00
-29140,81	42,00
-29057,99	218,00
-28975,50	189,00
-28893,34	100,00
-28811,51	21,00
-28730,00	117,00
-28648,82	175,00
-28567,97	142,00
-28487,43	17,00
-28407,21	68,00
-28327,32	15,00
-28247,73	140,00
-28168,46	201,00
-28089,50	144,00
-28010,85	70,00
-27932,51	136,00
-27854,48	43,00
-27776,75	107,00
-27699,32	64,00
-27622,19	127,00
-27545,37	84,00
-27468,84	-9,00
-27392,60	190,00
-27316,66	77,00
-27241,01	14,00
-27165,66	94,00
-27090,59	3,00
-27015,81	123,00
-26941,31	153,00
-26867,10	88,00
-26793,17	91,00
-26719,52	112,00
-26646,15	22,00
-26573,06	104,00
-26500,24	135,00
-26427,70	114,00
-26355,43	55,00
-26283,43	203,00
-26211,71	35,00
-26140,25	65,00
-26069,06	176,00
-25998,13	146,00
-25927,46	135,00
-25857,06	97,00
-25786,92	203,00
-25717,04	125,00
-25647,42	85,00
-25578,05	118,00
-25508,94	72,00
-25440,09	147,00
-25371,48	69,00
-25303,13	164,00
-25235,02	122,00
-25167,17	159,00
-25099,56	107,00
-25032,19	162,00
-24965,07	53,00
-24898,20	165,00
-24831,56	115,00
-24765,17	131,00
-24699,01	117,00
-24633,10	172,00
-24567,41	82,00
-24501,97	143,00
-24436,75	119,00
-24371,77	65,00
-24307,03	124,00
-24242,51	25,00
-24178,22	84,00
-24114,16	100,00
-24050,32	167,00
-23986,71	254,00
-23923,32	75,00
-23860,16	100,00
-23797,22	113,00
-23734,50	57,00
-23672,00	139,00
-23609,71	-20,00
-23547,65	92,00
-23485,80	196,00
-23424,16	81,00
-23362,74	129,00
-23301,53	-3,00
-23240,54	81,00
-23179,75	98,00
-23119,17	136,00
-23058,80	107,00
-22998,64	173,00
-22938,68	157,00
-22878,93	78,00
-22819,39	102,00
-22760,04	49,00
-22700,90	23,00
-22641,96	142,00
-22583,22	103,00
-22524,68	57,00
-22466,33	20,00
-22408,19	-3,00
-22350,23	166,00
-22292,48	129,00
-22234,92	125,00
-22177,55	38,00
-22120,37	57,00
-22063,38	144,00
-22006,58	68,00
-21949,98	44,00
-21893,56	168,00
-21837,33	158,00
-21781,28	68,00
-21725,42	155,00
-21669,74	126,00
-21614,25	152,00
-21558,94	32,00
-21503,81	132,00
-21448,86	-5,00
-21394,10	175,00
-21339,51	136,00
-21285,10	123,00
-21230,86	100,00
-21176,81	146,00
-21122,93	93,00
-21069,22	108,00
-21015,69	260,00
-20962,33	21,00
-20909,14	42,00
-20856,13	205,00
-20803,28	158,00
-20750,61	126,00
-20698,10	19,00
-20645,76	161,00
-20593,59	94,00
-20541,59	157,00
-20489,75	202,00
-20438,07	147,00
-20386,56	170,00
-20335,22	70,00
-20284,03	90,00
-20233,01	203,00
-20182,15	105,00
-20131,45	32,00
-20080,91	82,00
-20030,52	96,00
-19980,30	55,00
-19930,23	140,00
-19880,32	82,00
-19830,56	50,00
-19780,96	205,00
-19731,52	75,00
-19682,23	116,00
-19633,09	-72,00
-19584,10	-10,00
-19535,26	160,00
-19486,58	171,00
-19438,04	186,00
-19389,66	111,00
-19341,42	42,00
-19293,33	-61,00
-19245,39	92,00
-19197,60	87,00
-19149,95	31,00
-19102,45	137,00
-19055,09	141,00
-19007,87	79,00
-18960,80	141,00
-18913,87	61,00
-18867,09	19,00
-18820,44	9,00
-18773,94	170,00
-18727,57	14,00
-18681,35	151,00
-18635,26	90,00
-18589,31	146,00
-18543,50	131,00
-18497,83	121,00
-18452,29	141,00
-18406,89	66,00
-18361,63	107,00
-18316,50	97,00
-18271,50	108,00
-18226,63	67,00
-18181,90	80,00
-18137,30	97,00
-18092,84	70,00
-18048,50	94,00
-18004,29	58,00
-17960,22	163,00
-17916,27	68,00
-17872,45	135,00
-17828,76	84,00
-17785,20	133,00
-17741,77	154,00
-17698,46	111,00
-17655,28	19,00
-17612,22	112,00
-17569,29	91,00
-17526,48	174,00
-17483,79	180,00
-17441,23	33,00
-17398,79	59,00
-17356,48	145,00
-17314,28	155,00
-17272,21	181,00
-17230,26	-51,00
-17188,42	137,00
-17146,71	119,00
-17105,12	83,00
-17063,64	104,00
-17022,28	-2,00
-16981,04	83,00
-16939,92	58,00
-16898,91	129,00
-16858,02	56,00
-16817,25	-5,00
-16776,59	83,00
-16736,04	59,00
-16695,61	73,00
-16655,29	21,00
-16615,09	17,00
-16574,99	182,00
-16535,01	54,00
-16495,15	83,00
-16455,39	197,00
-16415,74	88,00
-16376,21	105,00
-16336,78	19,00
-16297,46	92,00
-16258,26	29,00
-16219,16	133,00
-16180,17	105,00
-16141,28	103,00
-16102,51	198,00
-16063,84	112,00
-16025,27	83,00
-15986,82	148,00
-15948,46	157,00
-15910,22	32,00
-15872,07	151,00
-15834,04	15,00
-15796,10	183,00
-15758,27	63,00
-15720,54	32,00
-15682,91	180,00
-15645,39	76,00
-15607,97	66,00
-15570,64	152,00
-15533,42	41,00
-15496,30	-18,00
-15459,28	123,00
-15422,36	160,00
-15385,54	8,00
-15348,82	186,00
-15312,19	99,00
-15275,66	124,00
-15239,23	80,00
-15202,90	15,00
-15166,67	59,00
-15130,53	6,00
-15094,48	145,00
-15058,54	102,00
-15022,68	101,00
-14986,93	227,00
-14951,26	103,00
-14915,69	64,00
-14880,22	153,00
-14844,84	64,00
-14809,55	174,00
-14774,35	111,00
-14739,25	35,00
-14704,24	46,00
-14669,32	77,00
-14634,49	118,00
-14599,75	76,00
-14565,10	59,00
-14530,55	20,00
-14496,08	5,00
-14461,70	114,00
-14427,41	66,00
-14393,21	55,00
-14359,10	34,00
-14325,07	100,00
-14291,14	90,00
-14257,29	86,00
-14223,52	82,00
-14189,85	17,00
-14156,26	91,00
-14122,76	164,00
-14089,34	114,00
-14056,01	40,00
-14022,76	30,00
-13989,60	57,00
-13956,52	78,00
-13923,53	77,00
-13890,62	107,00
-13857,79	37,00
-13825,05	44,00
-13792,39	178,00
-13759,81	134,00
-13727,31	151,00
-13694,90	150,00
-13662,57	97,00
-13630,31	31,00
-13598,14	193,00
-13566,05	73,00
-13534,05	66,00
-13502,12	113,00
-13470,27	108,00
-13438,50	152,00
-13406,80	124,00
-13375,19	117,00
-13343,66	139,00
-13312,20	158,00
-13280,83	105,00
-13249,53	82,00
-13218,30	0,00
-13187,16	80,00
-13156,09	138,00
-13125,10	138,00
-13094,18	47,00
-13063,34	189,00
-13032,58	117,00
-13001,89	62,00
-12971,28	104,00
-12940,74	44,00
-12910,27	165,00
-12879,88	113,00
-12849,57	112,00
-12819,33	59,00
-12789,16	196,00
-12759,06	149,00
-12729,04	59,00
-12699,09	155,00
-12669,21	130,00
-12639,41	135,00
-12609,68	119,00
-12580,02	92,00
-12550,43	-5,00
-12520,91	67,00
-12491,46	71,00
-12462,08	72,00
-12432,77	100,00
-12403,54	87,00
-12374,37	78,00
-12345,27	20,00
-12316,24	69,00
-12287,29	52,00
-12258,40	73,00
-12229,57	107,00
-12200,82	117,00
-12172,14	65,00
-12143,52	139,00
-12114,97	82,00
-12086,49	127,00
-12058,07	68,00
-12029,73	135,00
-12001,44	102,00
-11973,23	162,00
-11945,08	66,00
-11917,00	200,00
-11888,98	-3,00
-11861,03	53,00
-11833,15	85,00
-11805,32	114,00
-11777,57	65,00
-11749,88	156,00
-11722,25	70,00
-11694,69	69,00
-11667,19	29,00
-11639,75	185,00
-11612,38	83,00
-11585,07	186,00
-11557,83	161,00
-11530,65	-81,00
-11503,53	114,00
-11476,47	87,00
-11449,48	124,00
-11422,54	159,00
-11395,67	51,00
-11368,86	130,00
-11342,11	23,00
-11315,43	100,00
-11288,80	135,00
-11262,23	116,00
-11235,73	74,00
-11209,28	138,00
-11182,90	142,00
-11156,57	57,00
-11130,31	150,00
-11104,10	106,00
-11077,96	209,00
-11051,87	173,00
-11025,84	117,00
-10999,87	44,00
-10973,96	-30,00
-10948,11	61,00
-10922,31	83,00
-10896,58	88,00
-10870,90	126,00
-10845,28	142,00
-10819,71	198,00
-10794,20	96,00
-10768,75	86,00
-10743,36	74,00
-10718,02	77,00
-10692,74	153,00
-10667,52	105,00
-10642,35	138,00
-10617,24	76,00
-10592,18	154,00
-10567,18	158,00
-10542,23	121,00
-10517,34	206,00
-10492,51	90,00
-10467,72	173,00
-10443,00	116,00
-10418,32	265,00
-10393,70	92,00
-10369,14	174,00
-10344,63	174,00
-10320,17	250,00
-10295,77	146,00
-10271,42	141,00
-10247,12	253,00
-10222,88	301,00
-10198,68	302,00
-10174,54	256,00
-10150,46	311,00
-10126,42	259,00
-10102,44	380,00
-10078,51	312,00
-10054,63	346,00
-10030,80	380,00
-10007,03	397,00
-9983,30	371,00
-9959,63	449,00
-9936,01	318,00
-9912,44	396,00
-9888,92	458,00
-9865,44	557,00
-9842,02	476,00
-9818,65	565,00
-9795,33	592,00
-9772,06	616,00
-9748,84	549,00
-9725,67	714,00
-9702,55	717,00
-9679,47	890,00
-9656,45	885,00
-9633,47	909,00
-9610,55	1031,00
-9587,67	1132,00
-9564,84	1107,00
-9542,06	1335,00
-9519,32	1382,00
-9496,64	1556,00
-9474,00	1701,00
-9451,41	1752,00
-9428,87	1755,00
-9406,37	1807,00
-9383,92	1633,00
-9361,52	1680,00
-9339,17	1737,00
-9316,86	2036,00
-9294,60	2247,00
-9272,38	2523,00
-9250,21	2840,00
-9228,09	2966,00
-9206,01	2886,00
-9183,98	2657,00
-9162,00	2408,00
-9140,06	2321,00
-9118,16	2327,00
-9096,31	2537,00
-9074,51	2659,00
-9052,75	2751,00
-9031,04	2608,00
-9009,37	2305,00
-8987,74	1929,00
-8966,16	1816,00
-8944,63	1656,00
-8923,14	1570,00
-8901,69	1697,00
-8880,29	1788,00
-8858,93	2028,00
-8837,61	2292,00
-8816,34	2369,00
-8795,11	2295,00
-8773,92	2208,00
-8752,78	1896,00
-8731,68	1815,00
-8710,62	1854,00
-8689,61	2071,00
-8668,63	2065,00
-8647,70	2231,00
-8626,82	2320,00
-8605,97	2037,00
-8585,17	2055,00
-8564,41	1795,00
-8543,69	1662,00
-8523,01	1595,00
-8502,37	1591,00
-8481,78	1765,00
-8461,23	1970,00
-8440,71	2006,00
-8420,24	2295,00
-8399,81	2317,00
-8379,42	2314,00
-8359,08	1992,00
-8338,77	1750,00
-8318,50	1731,00
-8298,27	1703,00
-8278,09	1747,00
-8257,94	1864,00
-8237,83	2043,00
-8217,76	2056,00
-8197,74	2162,00
-8177,75	2165,00
-8157,80	1869,00
-8137,89	1689,00
-8118,02	1668,00
-8098,19	1727,00
-8078,40	1749,00
-8058,65	1675,00
-8038,93	1818,00
-8019,26	1662,00
-7999,62	1687,00
-7980,02	1622,00
-7960,46	1509,00
-7940,94	1407,00
-7921,46	1354,00
-7902,01	1377,00
-7882,60	1285,00
-7863,23	1382,00
-7843,90	1436,00
-7824,61	1403,00
-7805,35	1610,00
-7786,13	1412,00
-7766,95	1524,00
-7747,80	1523,00
-7728,69	1468,00
-7709,62	1482,00
-7690,59	1486,00
-7671,59	1625,00
-7652,63	1706,00
-7633,70	1625,00
-7614,81	1663,00
-7595,96	1423,00
-7577,15	1283,00
-7558,37	1300,00
-7539,62	1374,00
-7520,91	1542,00
-7502,24	1647,00
-7483,60	1510,00
-7465,00	1481,00
-7446,44	1322,00
-7427,91	1114,00
-7409,41	970,00
-7390,95	1018,00
-7372,53	939,00
-7354,14	878,00
-7335,78	887,00
-7317,46	1032,00
-7299,18	1084,00
-7280,92	1266,00
-7262,71	1448,00
-7244,52	1466,00
-7226,38	1428,00
-7208,26	1438,00
-7190,18	1312,00
-7172,14	1114,00
-7154,12	1214,00
-7136,15	1340,00
-7118,20	1430,00
-7100,29	1449,00
-7082,41	1538,00
-7064,57	1454,00
-7046,76	1325,00
-7028,98	1134,00
-7011,24	830,00
-6993,53	893,00
-6975,85	906,00
-6958,20	663,00
-6940,59	577,00
-6923,01	728,00
-6905,46	884,00
-6887,94	887,00
-6870,46	3698,00
-6853,01	1326,00
-6835,59	1351,00
-6818,21	1086,00
-6800,85	1023,00
-6783,53	773,00
-6766,24	623,00
-6748,98	572,00
-6731,76	661,00
-6714,56	495,00
-6697,40	468,00
-6680,26	467,00
-6663,16	582,00
-6646,09	785,00
-6629,05	913,00
-6612,05	1030,00
-6595,07	963,00
-6578,13	1010,00
-6561,21	678,00
-6544,33	691,00
-6527,47	397,00
-6510,65	591,00
-6493,86	418,00
-6477,10	358,00
-6460,36	537,00
-6443,66	486,00
-6426,99	455,00
-6410,35	461,00
-6393,74	462,00
-6377,16	650,00
-6360,61	718,00
-6344,09	818,00
-6327,59	691,00
-6311,13	735,00
-6294,70	802,00
-6278,29	783,00
-6261,92	930,00
-6245,58	890,00
-6229,26	1022,00
-6212,97	916,00
-6196,72	769,00
-6180,49	491,00
-6164,29	250,00
-6148,12	238,00
-6131,98	283,00
-6115,86	278,00
-6099,78	282,00
-6083,72	123,00
-6067,69	124,00
-6051,69	212,00
-6035,72	114,00
-6019,78	438,00
-6003,87	400,00
-5987,98	589,00
-5972,12	745,00
-5956,29	734,00
-5940,49	663,00
-5924,71	526,00
-5908,96	295,00
-5893,24	247,00
-5877,55	272,00
-5861,89	308,00
-5846,25	337,00
-5830,64	295,00
-5815,05	218,00
-5799,50	369,00
-5783,97	318,00
-5768,47	432,00
-5752,99	618,00
-5737,55	602,00
-5722,12	629,00
-5706,73	776,00
-5691,36	618,00
-5676,02	425,00
-5660,71	209,00
-5645,42	353,00
-5630,16	322,00
-5614,92	425,00
-5599,71	492,00
-5584,53	504,00
-5569,37	505,00
-5554,24	526,00
-5539,14	465,00
-5524,06	446,00
-5509,01	390,00
-5493,98	513,00
-5478,98	495,00
-5464,00	419,00
-5449,05	480,00
-5434,13	376,00
-5419,23	261,00
-5404,36	280,00
-5389,51	447,00
-5374,69	574,00
-5359,89	787,00
-5345,12	822,00
-5330,37	671,00
-5315,65	675,00
-5300,95	533,00
-5286,28	437,00
-5271,63	426,00
-5257,01	425,00
-5242,41	389,00
-5227,84	332,00
-5213,29	338,00
-5198,76	193,00
-5184,26	217,00
-5169,79	236,00
-5155,33	336,00
-5140,91	388,00
-5126,51	388,00
-5112,13	489,00
-5097,77	423,00
-5083,44	248,00
-5069,13	277,00
-5054,85	274,00
-5040,59	488,00
-5026,36	352,00
-5012,15	459,00
-4997,96	477,00
-4983,80	323,00
-4969,66	373,00
-4955,54	153,00
-4941,44	363,00
-4927,37	531,00
-4913,33	788,00
-4899,30	876,00
-4885,30	786,00
-4871,33	415,00
-4857,37	315,00
-4843,44	279,00
-4829,53	226,00
-4815,65	453,00
-4801,79	347,00
-4787,95	373,00
-4774,13	264,00
-4760,34	182,00
-4746,56	122,00
-4732,82	349,00
-4719,09	287,00
-4705,38	584,00
-4691,70	629,00
-4678,04	648,00
-4664,41	540,00
-4650,79	393,00
-4637,20	276,00
-4623,63	302,00
-4610,08	329,00
-4596,56	406,00
-4583,05	433,00
-4569,57	482,00
-4556,11	285,00
-4542,67	247,00
-4529,25	343,00
-4515,86	399,00
-4502,49	591,00
-4489,13	612,00
-4475,80	559,00
-4462,49	388,00
-4449,21	345,00
-4435,94	267,00
-4422,70	350,00
-4409,47	406,00
-4396,27	377,00
-4383,09	269,00
-4369,93	143,00
-4356,79	204,00
-4343,67	191,00
-4330,58	283,00
-4317,50	329,00
-4304,45	363,00
-4291,41	292,00
-4278,40	217,00
-4265,41	180,00
-4252,44	354,00
-4239,49	397,00
-4226,55	335,00
-4213,65	330,00
-4200,76	217,00
-4187,89	210,00
-4175,04	262,00
-4162,21	151,00
-4149,40	144,00
-4136,61	162,00
-4123,85	129,00
-4111,10	82,00
-4098,37	133,00
-4085,66	144,00
-4072,98	168,00
-4060,31	118,00
-4047,66	57,00
-4035,04	214,00
-4022,43	150,00
-4009,84	153,00
-3997,27	108,00
-3984,72	194,00
-3972,19	71,00
-3959,69	58,00
-3947,20	117,00
-3934,73	44,00
-3922,27	122,00
-3909,84	35,00
-3897,43	128,00
-3885,04	164,00
-3872,67	43,00
-3860,31	139,00
-3847,98	84,00
-3835,66	177,00
-3823,36	59,00
-3811,09	201,00
-3798,83	205,00
-3786,59	73,00
-3774,37	88,00
-3762,17	180,00
-3749,98	91,00
-3737,82	89,00
-3725,67	109,00
-3713,55	62,00
-3701,44	46,00
-3689,35	94,00
-3677,28	42,00
-3665,22	191,00
-3653,19	35,00
-3641,17	70,00
-3629,18	21,00
-3617,20	-23,00
-3605,24	159,00
-3593,30	123,00
-3581,37	55,00
-3569,47	148,00
-3557,58	33,00
-3545,71	38,00
-3533,86	144,00
-3522,02	35,00
-3510,21	32,00
-3498,41	41,00
-3486,63	79,00
-3474,87	99,00
-3463,12	142,00
-3451,40	56,00
-3439,69	84,00
-3428,00	38,00
-3416,33	80,00
-3404,67	54,00
-3393,03	53,00
-3381,41	102,00
-3369,81	151,00
-3358,22	-7,00
-3346,66	173,00
-3335,10	140,00
-3323,57	160,00
-3312,06	151,00
-3300,56	58,00
-3289,08	128,00
-3277,61	24,00
-3266,16	97,00
-3254,73	83,00
-3243,32	67,00
-3231,92	68,00
-3220,55	161,00
-3209,18	155,00
-3197,84	134,00
-3186,51	0,00
-3175,20	70,00
-3163,90	130,00
-3152,63	101,00
-3141,36	86,00
-3130,12	89,00
-3118,89	181,00
-3107,68	187,00
-3096,49	92,00
-3085,31	83,00
-3074,15	68,00
-3063,00	179,00
-3051,87	139,00
-3040,76	84,00
-3029,67	158,00
-3018,59	40,00
-3007,52	150,00
-2996,48	47,00
-2985,44	97,00
-2974,43	178,00
-2963,43	65,00
-2952,45	38,00
-2941,48	98,00
-2930,53	129,00
-2919,60	169,00
-2908,68	68,00
-2897,78	44,00
-2886,89	110,00
-2876,02	88,00
-2865,17	43,00
-2854,33	95,00
-2843,50	51,00
-2832,70	70,00
-2821,90	168,00
-2811,13	71,00
-2800,37	111,00
-2789,62	133,00
-2778,89	152,00
-2768,18	139,00
-2757,48	158,00
-2746,80	90,00
-2736,13	63,00
-2725,48	85,00
-2714,84	6,00
-2704,22	22,00
-2693,61	199,00
-2683,02	88,00
-2672,45	192,00
-2661,89	33,00
-2651,34	85,00
-2640,81	17,00
-2630,30	81,00
-2619,80	158,00
-2609,31	52,00
-2598,84	63,00
-2588,39	41,00
-2577,95	149,00
-2567,52	88,00
-2557,11	23,00
-2546,71	51,00
-2536,33	135,00
-2525,97	52,00
-2515,62	78,00
-2505,28	164,00
-2494,96	27,00
-2484,65	13,00
-2474,36	140,00
-2464,08	179,00
-2453,82	121,00
-2443,57	184,00
-2433,33	112,00
-2423,11	-13,00
-2412,91	159,00
-2402,72	60,00
-2392,54	5,00
-2382,38	88,00
-2372,23	149,00
-2362,09	-58,00
-2351,97	158,00
-2341,87	223,00
-2331,78	122,00
-2321,70	145,00
-2311,64	107,00
-2301,59	186,00
-2291,55	95,00
-2281,53	-19,00
-2271,53	81,00
-2261,53	52,00
-2251,55	104,00
-2241,59	45,00
-2231,64	282,00
-2221,70	165,00
-2211,78	106,00
-2201,87	42,00
-2191,97	145,00
-2182,09	111,00
-2172,22	81,00
-2162,37	-38,00
-2152,53	105,00
-2142,70	80,00
-2132,89	73,00
-2123,09	107,00
-2113,30	83,00
-2103,53	93,00
-2093,77	31,00
-2084,02	91,00
-2074,29	133,00
-2064,57	93,00
-2054,86	-14,00
-2045,17	117,00
-2035,49	51,00
-2025,82	125,00
-2016,17	160,00
-2006,53	49,00
-1996,91	55,00
-1987,29	170,00
-1977,69	143,00
-1968,11	321,00
-1958,53	166,00
-1948,97	171,00
-1939,42	30,00
-1929,89	76,00
-1920,37	183,00
-1910,86	146,00
-1901,36	134,00
-1891,88	65,00
-1882,41	62,00
-1872,95	59,00
-1863,51	292,00
-1854,08	86,00
-1844,66	175,00
-1835,26	82,00
-1825,86	79,00
-1816,48	22,00
-1807,11	66,00
-1797,76	-20,00
-1788,42	77,00
-1779,09	112,00
-1769,77	163,00
-1760,47	75,00
-1751,17	132,00
-1741,89	87,00
-1732,63	82,00
-1723,37	165,00
-1714,13	41,00
-1704,90	50,00
-1695,68	190,00
-1686,48	36,00
-1677,29	156,00
-1668,11	94,00
-1658,94	200,00
-1649,78	129,00
-1640,64	44,00
-1631,51	146,00
-1622,39	57,00
-1613,28	159,00
-1604,19	126,00
-1595,10	190,00
-1586,03	69,00
-1576,97	274,00
-1567,93	58,00
-1558,89	133,00
-1549,87	101,00
-1540,86	53,00
-1531,86	210,00
-1522,87	54,00
-1513,90	70,00
-1504,93	91,00
-1495,98	200,00
-1487,04	111,00
-1478,12	237,00
-1469,20	28,00
-1460,30	162,00
-1451,40	131,00
-1442,52	113,00
-1433,65	146,00
-1424,80	108,00
-1415,95	58,00
-1407,12	257,00
-1398,30	79,00
-1389,48	29,00
-1380,69	104,00
-1371,90	45,00
-1363,12	7,00
-1354,36	164,00
-1345,60	75,00
-1336,86	80,00
-1328,13	116,00
-1319,41	97,00
-1310,70	151,00
-1302,01	92,00
-1293,32	116,00
-1284,65	73,00
-1275,99	95,00
-1267,33	53,00
-1258,69	196,00
-1250,06	80,00
-1241,45	93,00
-1232,84	162,00
-1224,25	109,00
-1215,66	95,00
-1207,09	60,00
-1198,53	79,00
-1189,97	59,00
-1181,43	127,00
-1172,91	93,00
-1164,39	92,00
-1155,88	90,00
-1147,38	162,00
-1138,90	102,00
-1130,43	70,00
-1121,96	127,00
-1113,51	67,00
-1105,07	162,00
-1096,64	77,00
-1088,22	148,00
-1079,81	120,00
-1071,41	45,00
-1063,02	40,00
-1054,65	91,00
-1046,28	175,00
-1037,92	110,00
-1029,58	131,00
-1021,24	20,00
-1012,92	159,00
-1004,61	168,00
-996,30	221,00
-988,01	79,00
-979,73	81,00
-971,46	149,00
-963,20	11,00
-954,95	140,00
-946,71	222,00
-938,48	38,00
-930,26	128,00
-922,06	91,00
-913,86	144,00
-905,67	128,00
-897,49	126,00
-889,33	62,00
-881,17	99,00
-873,02	176,00
-864,89	-12,00
-856,76	77,00
-848,65	256,00
-840,54	120,00
-832,45	96,00
-824,36	126,00
-816,29	201,00
-808,22	1,00
-800,17	131,00
-792,12	241,00
-784,09	94,00
-776,06	103,00
-768,05	98,00
-760,04	188,00
-752,05	136,00
-744,07	67,00
-736,09	39,00
-728,13	199,00
-720,17	52,00
-712,23	27,00
-704,29	182,00
-696,37	99,00
-688,45	79,00
-680,55	139,00
-672,65	86,00
-664,77	102,00
-656,89	131,00
-649,03	64,00
-641,17	72,00
-633,32	90,00
-625,49	123,00
-617,66	52,00
-609,84	43,00
-602,03	111,00
-594,23	103,00
-586,45	141,00
-578,67	51,00
-570,90	87,00
-563,14	119,00
-555,39	61,00
-547,65	81,00
-539,91	14,00
-532,19	154,00
-524,48	43,00
-516,78	88,00
-509,08	34,00
-501,40	17,00
-493,72	94,00
-486,06	181,00
-478,40	89,00
-470,76	139,00
-463,12	-4,00
-455,49	77,00
-447,87	79,00
-440,26	132,00
-432,66	112,00
-425,07	142,00
-417,49	99,00
-409,92	148,00
-402,35	135,00
-394,80	164,00
-387,25	131,00
-379,72	148,00
-372,19	160,00
-364,67	211,00
-357,17	72,00
-349,67	179,00
-342,18	197,00
-334,69	233,00
-327,22	161,00
-319,76	104,00
-312,30	205,00
-304,86	252,00
-297,42	86,00
-290,00	150,00
-282,58	140,00
-275,17	237,00
-267,77	158,00
-260,37	241,00
-252,99	59,00
-245,62	117,00
-238,25	96,00
-230,90	160,00
-223,55	193,00
-216,21	293,00
-208,88	301,00
-201,56	267,00
-194,25	280,00
-186,94	462,00
-179,65	302,00
-172,36	356,00
-165,08	405,00
-157,81	374,00
-150,55	404,00
-143,30	516,00
-136,06	422,00
-128,82	634,00
-121,60	719,00
-114,38	649,00
-107,17	708,00
-99,97	832,00
-92,78	974,00
-85,60	1053,00
-78,42	1317,00
-71,25	1527,00
-64,10	1687,00
-56,95	1943,00
-49,81	2262,00
-42,67	2728,00
-35,55	3499,00
-28,43	4433,00
-21,33	7308,00
-14,23	22893,00
-7,14	56043,00
-0,05	55763,00
7,02	55513,00
14,09	55717,00
21,14	24218,00
28,19	9765,00
35,23	6065,00
42,27	4473,00
49,29	3703,00
56,31	3171,00
63,32	2605,00
70,32	2208,00
77,31	1858,00
84,29	1608,00
91,27	1389,00
98,23	1314,00
105,19	1238,00
112,14	1196,00
119,09	1607,00
126,02	2490,00
132,95	2808,00
139,87	2980,00
146,78	2775,00
153,68	2824,00
160,58	2731,00
167,46	2688,00
174,34	2739,00
181,21	2640,00
188,08	2659,00
194,93	2622,00
201,78	2678,00
208,62	2648,00
215,45	2519,00
222,27	2598,00
229,09	2691,00
235,90	2548,00
242,70	2534,00
249,49	2453,00
256,27	2405,00
263,05	2354,00
269,82	2448,00
276,58	2352,00
283,33	2342,00
290,08	2229,00
296,82	2274,00
303,55	2182,00
310,27	2261,00
316,98	2084,00
323,69	2061,00
330,39	2155,00
337,08	2115,00
343,76	2188,00
350,44	2172,00
357,11	2149,00
363,77	2090,00
370,42	2039,00
377,07	1950,00
383,71	2106,00
390,34	2100,00
396,96	2119,00
403,58	2022,00
410,19	2020,00
416,79	2092,00
423,38	2226,00
429,97	1957,00
436,55	1933,00
443,12	1871,00
449,68	1829,00
456,24	1939,00
462,79	1864,00
469,33	1853,00
475,86	1839,00
482,39	1879,00
488,91	1868,00
495,42	1765,00
501,93	1816,00
508,42	1633,00
514,91	1784,00
521,40	1725,00
527,87	1644,00
534,34	1680,00
540,80	1498,00
547,25	1617,00
553,70	1755,00
560,14	1576,00
566,57	1727,00
573,00	1615,00
579,41	1705,00
585,83	1731,00
592,23	1624,00
598,62	1532,00
605,01	1608,00
611,40	1622,00
617,77	1607,00
624,14	1433,00
630,50	1525,00
636,85	1578,00
643,20	1456,00
649,54	1611,00
655,87	1508,00
662,20	1502,00
668,52	1527,00
674,83	1542,00
681,13	1497,00
687,43	1376,00
693,72	1414,00
700,00	1443,00
706,28	1475,00
712,55	1423,00
718,81	1452,00
725,07	1431,00
731,32	1541,00
737,56	1565,00
743,79	1568,00
750,02	1498,00
756,24	1518,00
762,46	1477,00
768,67	1483,00
774,87	1405,00
781,06	1701,00
787,25	1430,00
793,43	1453,00
799,60	1424,00
805,77	1477,00
811,93	1412,00
818,08	1442,00
824,23	1718,00
830,37	1504,00
836,50	1417,00
842,63	1464,00
848,75	1515,00
854,87	1443,00
860,97	1489,00
867,07	1503,00
873,17	1403,00
879,25	1345,00
885,33	1491,00
891,41	1530,00
897,47	1400,00
903,53	1380,00
909,59	1299,00
915,63	1424,00
921,67	1337,00
927,71	1411,00
933,74	1355,00
939,76	1324,00
945,77	1382,00
951,78	1349,00
957,78	1378,00
963,78	1312,00
969,77	1276,00
975,75	1339,00
981,72	1350,00
987,69	1469,00
993,66	1335,00
999,61	1324,00
1005,56	1350,00
1011,51	1497,00
1017,44	1361,00
1023,37	1212,00
1029,30	1363,00
1035,22	1415,00
1041,13	1247,00
1047,03	1497,00
1052,93	1565,00
1058,83	1808,00
1064,71	1984,00
1070,59	1828,00
1076,47	1687,00
1082,33	1395,00
1088,20	1427,00
1094,05	1440,00
1099,90	1481,00
1105,74	1269,00
1111,58	1421,00
1117,41	1365,00
1123,23	1497,00
1129,05	1858,00
1134,86	1635,00
1140,67	1427,00
1146,47	1310,00
1152,26	1396,00
1158,05	1143,00
1163,83	1256,00
1169,60	1348,00
1175,37	1111,00
1181,13	1256,00
1186,89	1247,00
1192,64	1113,00
1198,38	1243,00
1204,12	1216,00
1209,85	1157,00
1215,58	1019,00
1221,30	1207,00
1227,02	1145,00
1232,72	1157,00
1238,43	1260,00
1244,12	1145,00
1249,81	1170,00
1255,50	1291,00
1261,17	1238,00
1266,85	1219,00
1272,51	1284,00
1278,17	1332,00
1283,83	1573,00
1289,47	1905,00
1295,12	2164,00
1300,75	2149,00
1306,38	1901,00
1312,01	1636,00
1317,63	1389,00
1323,24	1406,00
1328,85	1404,00
1334,45	1485,00
1340,04	1323,00
1345,63	1318,00
1351,22	1311,00
1356,80	1304,00
1362,37	1359,00
1367,93	1444,00
1373,49	1341,00
1379,05	1428,00
1384,60	1321,00
1390,14	1294,00
1395,68	1360,00
1401,21	1431,00
1406,74	1528,00
1412,26	1487,00
1417,77	1632,00
1423,28	1635,00
1428,78	2001,00
1434,28	2198,00
1439,77	2485,00
1445,26	2528,00
1450,74	2470,00
1456,22	2095,00
1461,68	2058,00
1467,15	1934,00
1472,61	1722,00
1478,06	1614,00
1483,51	1464,00
1488,95	1384,00
1494,38	1336,00
1499,81	1250,00
1505,24	1237,00
1510,65	1157,00
1516,07	1167,00
1521,48	984,00
1526,88	1071,00
1532,27	1156,00
1537,67	981,00
1543,05	1185,00
1548,43	1077,00
1553,81	1035,00
1559,18	951,00
1564,54	1092,00
1569,90	1086,00
1575,25	1009,00
1580,60	1117,00
1585,94	1113,00
1591,28	985,00
1596,61	1003,00
1601,93	987,00
1607,25	1010,00
1612,57	1016,00
1617,88	1000,00
1623,18	1086,00
1628,48	944,00
1633,77	1038,00
1639,06	1060,00
1644,34	893,00
1649,62	1009,00
1654,89	965,00
1660,16	1164,00
1665,42	933,00
1670,67	920,00
1675,92	953,00
1681,17	918,00
1686,41	934,00
1691,64	849,00
1696,87	981,00
1702,10	811,00
1707,32	1006,00
1712,53	918,00
1717,74	837,00
1722,94	939,00
1728,14	840,00
1733,33	803,00
1738,52	768,00
1743,70	832,00
1748,88	857,00
1754,05	741,00
1759,22	846,00
1764,38	829,00
1769,53	812,00
1774,69	690,00
1779,83	825,00
1784,97	805,00
1790,11	864,00
1795,24	713,00
1800,36	736,00
1805,48	817,00
1810,60	657,00
1815,71	721,00
1820,82	683,00
1825,92	661,00
1831,01	702,00
1836,10	756,00
1841,19	757,00
1846,26	620,00
1851,34	613,00
1856,41	875,00
1861,47	690,00
1866,53	608,00
1871,59	704,00
1876,64	794,00
1881,68	677,00
1886,72	671,00
1891,76	695,00
1896,79	707,00
1901,81	602,00
1906,83	665,00
1911,85	605,00
1916,86	704,00
1921,86	807,00
1926,86	644,00
1931,86	577,00
1936,85	590,00
1941,83	650,00
1946,81	649,00
1951,79	632,00
1956,76	509,00
1961,72	575,00
1966,68	628,00
1971,64	563,00
1976,59	480,00
1981,54	524,00
1986,48	604,00
1991,42	563,00
1996,35	686,00
2001,27	561,00
2006,20	569,00
2011,11	521,00
2016,03	635,00
2020,93	497,00
2025,84	460,00
2030,73	560,00
2035,63	523,00
2040,52	464,00
2045,40	467,00
2050,28	441,00
2055,15	625,00
2060,02	444,00
2064,89	600,00
2069,75	460,00
2074,60	494,00
2079,46	408,00
2084,30	500,00
2089,14	398,00
2093,98	391,00
2098,81	479,00
2103,64	542,00
2108,46	581,00
2113,28	541,00
2118,09	499,00
2122,90	475,00
2127,70	519,00
2132,50	547,00
2137,30	427,00
2142,09	421,00
2146,87	537,00
2151,66	495,00
2156,43	535,00
2161,20	533,00
2165,97	414,00
2170,73	413,00
2175,49	417,00
2180,24	544,00
2184,99	507,00
2189,74	488,00
2194,48	422,00
2199,21	485,00
2203,94	390,00
2208,67	499,00
2213,39	409,00
2218,11	428,00
2222,82	477,00
2227,53	371,00
2232,23	375,00
2236,93	586,00
2241,63	404,00
2246,32	528,00
2251,00	414,00
2255,68	491,00
2260,36	475,00
2265,03	392,00
2269,70	419,00
2274,36	455,00
2279,02	369,00
2283,68	352,00
2288,33	465,00
2292,97	460,00
2297,61	397,00
2302,25	488,00
2306,88	372,00
2311,51	369,00
2316,14	439,00
2320,75	385,00
2325,37	484,00
2329,98	382,00
2334,59	435,00
2339,19	420,00
2343,79	223,00
2348,38	430,00
2352,97	386,00
2357,55	424,00
2362,13	328,00
2366,71	377,00
2371,28	440,00
2375,85	323,00
2380,41	482,00
2384,97	398,00
2389,52	398,00
2394,07	333,00
2398,62	302,00
2403,16	329,00
2407,70	325,00
2412,23	364,00
2416,76	380,00
2421,29	316,00
2425,81	275,00
2430,32	398,00
2434,84	299,00
2439,34	379,00
2443,85	450,00
2448,35	442,00
2452,84	401,00
2457,33	280,00
2461,82	311,00
2466,30	322,00
2470,78	256,00
2475,25	366,00
2479,72	317,00
2484,19	375,00
2488,65	430,00
2493,11	353,00
2497,56	373,00
2502,01	381,00
2506,46	340,00
2510,90	303,00
2515,34	312,00
2519,77	370,00
2524,20	326,00
2528,62	389,00
2533,04	256,00
2537,46	253,00
2541,87	388,00
2546,28	353,00
2550,68	391,00
2555,08	308,00
2559,48	418,00
2563,87	365,00
2568,26	331,00
2572,64	216,00
2577,02	362,00
2581,40	394,00
2585,77	361,00
2590,14	327,00
2594,50	398,00
2598,86	319,00
2603,22	265,00
2607,57	252,00
2611,92	323,00
2616,26	256,00
2620,60	294,00
2624,94	351,00
2629,27	272,00
2633,60	313,00
2637,92	276,00
2642,24	362,00
2646,56	331,00
2650,87	206,00
2655,18	421,00
2659,48	324,00
2663,78	437,00
2668,08	275,00
2672,37	232,00
2676,66	315,00
2680,95	428,00
2685,23	299,00
2689,50	352,00
2693,78	261,00
2698,05	424,00
2702,31	354,00
2706,57	369,00
2710,83	339,00
2715,08	479,00
2719,33	419,00
2723,58	479,00
2727,82	474,00
2732,06	452,00
2736,29	323,00
2740,53	372,00
2744,75	352,00
2748,97	532,00
2753,19	363,00
2757,41	405,00
2761,62	240,00
2765,83	390,00
2770,03	309,00
2774,23	271,00
2778,43	361,00
2782,62	520,00
2786,81	375,00
2791,00	371,00
2795,18	532,00
2799,35	466,00
2803,53	468,00
2807,70	491,00
2811,86	473,00
2816,03	446,00
2820,19	527,00
2824,34	531,00
2828,49	699,00
2832,64	744,00
2836,78	912,00
2840,92	1088,00
2845,06	1420,00
2849,19	1752,00
2853,32	1748,00
2857,45	1623,00
2861,57	1561,00
2865,69	1622,00
2869,80	1557,00
2873,91	1518,00
2878,02	1683,00
2882,12	1784,00
2886,22	1784,00
2890,32	1671,00
2894,41	1709,00
2898,50	1412,00
2902,58	1383,00
2906,67	1461,00
2910,74	1294,00
2914,82	1184,00
2918,89	1082,00
2922,96	1047,00
2927,02	989,00
2931,08	1003,00
2935,13	775,00
2939,19	824,00
2943,24	765,00
2947,28	813,00
2951,32	567,00
2955,36	614,00
2959,40	447,00
2963,43	468,00
2967,46	359,00
2971,48	428,00
2975,50	491,00
2979,52	356,00
2983,53	422,00
2987,54	255,00
2991,55	256,00
2995,55	253,00
2999,55	229,00
3003,54	344,00
3007,54	226,00
3011,53	218,00
3015,51	246,00
3019,49	372,00
3023,47	175,00
3027,45	195,00
3031,42	313,00
3035,39	136,00
3039,35	168,00
3043,31	169,00
3047,27	250,00
3051,22	116,00
3055,17	300,00
3059,12	216,00
3063,06	159,00
3067,00	297,00
3070,94	236,00
3074,87	210,00
3078,80	195,00
3082,73	199,00
3086,65	211,00
3090,57	164,00
3094,49	160,00
3098,40	134,00
3102,31	130,00
3106,22	225,00
3110,12	230,00
3114,02	122,00
3117,92	118,00
3121,81	260,00
3125,70	205,00
3129,58	260,00
3133,47	110,00
3137,34	142,00
3141,22	70,00
3145,09	261,00
3148,96	142,00
3152,83	278,00
3156,69	125,00
3160,55	113,00
3164,40	272,00
3168,26	267,00
3172,10	200,00
3175,95	257,00
3179,79	217,00
3183,63	174,00
3187,47	192,00
3191,30	109,00
3195,13	110,00
3198,95	123,00
3202,78	152,00
3206,60	188,00
3210,41	39,00
3214,23	134,00
3218,03	171,00
3221,84	120,00
3225,64	186,00
3229,44	155,00
3233,24	98,00
3237,03	116,00
3240,82	199,00
3244,61	255,00
3248,39	206,00
3252,17	212,00
3255,95	189,00
3259,72	181,00
3263,49	155,00
3267,26	179,00
3271,03	167,00
3274,79	164,00
3278,54	216,00
3282,30	140,00
3286,05	158,00
3289,80	179,00
3293,54	134,00
3297,29	220,00
3301,02	193,00
3304,76	196,00
3308,49	149,00
3312,22	183,00
3315,95	205,00
3319,67	114,00
3323,39	185,00
3327,10	180,00
3330,82	171,00
3334,53	199,00
3338,24	115,00
3341,94	149,00
3345,64	184,00
3349,34	131,00
3353,03	139,00
3356,72	180,00
3360,41	149,00
3364,10	126,00
3367,78	112,00
3371,46	286,00
3375,13	215,00
3378,81	215,00
3382,48	192,00
3386,14	183,00
3389,81	81,00
3393,47	132,00
3397,12	230,00
3400,78	190,00
3404,43	101,00
3408,08	113,00
3411,72	203,00
3415,36	147,00
3419,00	199,00
3422,64	157,00
3426,27	229,00
3429,90	193,00
3433,53	82,00
3437,15	12,00
3440,77	159,00
3444,39	82,00
3448,00	272,00
3451,62	69,00
3455,22	70,00
3458,83	89,00
3462,43	102,00
3466,03	84,00
3469,63	67,00
3473,22	28,00
3476,81	56,00
3480,40	19,00
3483,99	104,00
3487,57	185,00
3491,15	129,00
3494,72	173,00
3498,29	164,00
3501,86	110,00
3505,43	67,00
3508,99	189,00
3512,56	66,00
3516,11	188,00
3519,67	61,00
3523,22	119,00
3526,77	80,00
3530,32	137,00
3533,86	107,00
3537,40	62,00
3540,94	105,00
3544,47	151,00
3548,00	93,00
3551,53	47,00
3555,06	67,00
3558,58	111,00
3562,10	37,00
3565,62	181,00
3569,13	88,00
3572,64	143,00
3576,15	131,00
3579,66	99,00
3583,16	173,00
3586,66	54,00
3590,16	57,00
3593,65	95,00
3597,14	139,00
3600,63	113,00
3604,11	63,00
3607,60	68,00
3611,08	46,00
3614,55	199,00
3618,03	30,00
3621,50	72,00
3624,97	64,00
3628,43	81,00
3631,90	132,00
3635,36	89,00
3638,81	81,00
3642,27	128,00
3645,72	78,00
3649,17	72,00
3652,61	96,00
3656,06	65,00
3659,50	68,00
3662,93	79,00
3666,37	180,00
3669,80	48,00
3673,23	181,00
3676,65	143,00
3680,08	103,00
3683,50	142,00
3686,92	129,00
3690,33	16,00
3693,74	147,00
3697,15	41,00
3700,56	79,00
3703,96	164,00
3707,36	10,00
3710,76	79,00
3714,16	144,00
3717,55	135,00
3720,94	102,00
3724,33	140,00
3727,71	11,00
3731,10	-10,00
3734,48	145,00
3737,85	92,00
3741,23	35,00
3744,60	110,00
3747,97	160,00
3751,33	66,00
3754,69	95,00
3758,05	86,00
3761,41	107,00
3764,77	121,00
3768,12	72,00
3771,47	114,00
3774,82	134,00
3778,16	-3,00
3781,50	5,00
3784,84	3,00
3788,18	2,00
>>>>>End Processed Spectral Data<<<<<
