SpectraSuite Data File
++++++++++++++++++++++++++++++++++++
Date: Wed Feb 11 16:51:35 ICT 2026
User: Administrator
Dark Spectrum Present: Yes
Reference Spectrum Present: No
Number of Sampled Component Spectra: 1
Spectrometers: MAYP113682
Integration Time (usec): 3000000 (MAYP113682)
Spectra Averaged: 1 (MAYP113682)
Boxcar Smoothing: 0 (MAYP113682)
Correct for Electrical Dark: No (MAYP113682)
Strobe/Lamp Enabled: No (MAYP113682)
Correct for Detector Non-linearity: No (MAYP113682)
Correct for Stray Light: No (MAYP113682)
Number of Pixels in Processed Spectrum: 2068
>>>>>Begin Processed Spectral Data<<<<<
-37534,58	4,00
-37414,56	-1,00
-37295,11	-1,00
-37176,24	1,00
-37057,95	12,00
-36940,22	-42,00
-36823,05	-64,00
-36706,45	-54,00
-36590,40	23,00
-36474,90	-67,00
-36359,95	-48,00
-36245,55	-40,00
-36131,68	-12,00
-36018,35	-100,00
-35905,55	71,00
-35793,29	-125,00
-35681,54	-84,00
-35570,32	-10,00
-35459,62	-43,00
-35349,43	-151,00
-35239,75	6,00
-35130,58	13,00
-35021,91	-165,00
-34913,74	-113,00
-34806,07	3,00
-34698,89	-141,00
-34592,20	-1,00
-34486,00	-58,00
-34380,28	-23,00
-34275,04	-102,00
-34170,27	-42,00
-34065,98	-224,00
-33962,16	-85,00
-33858,81	-30,00
-33755,92	-11,00
-33653,49	-117,00
-33551,52	-117,00
-33450,01	-146,00
-33348,94	-63,00
-33248,33	-83,00
-33148,16	-95,00
-33048,43	-16,00
-32949,14	-32,00
-32850,29	-82,00
-32751,87	-57,00
-32653,89	-80,00
-32556,33	-59,00
-32459,20	-67,00
-32362,49	-40,00
-32266,19	-73,00
-32170,32	-38,00
-32074,86	-104,00
-31979,82	-175,00
-31885,18	-86,00
-31790,95	-47,00
-31697,12	-50,00
-31603,69	-117,00
-31510,67	-75,00
-31418,04	-5,00
-31325,80	-2,00
-31233,95	32,00
-31142,49	-75,00
-31051,42	-117,00
-30960,73	-108,00
-30870,43	-146,00
-30780,50	-7,00
-30690,95	-19,00
-30601,77	-56,00
-30512,97	-124,00
-30424,53	-4,00
-30336,46	-168,00
-30248,76	8,00
-30161,42	-76,00
-30074,44	-39,00
-29987,81	-117,00
-29901,55	-101,00
-29815,63	16,00
-29730,07	-40,00
-29644,86	-34,00
-29560,00	-124,00
-29475,48	-62,00
-29391,30	-138,00
-29307,47	-100,00
-29223,97	-53,00
-29140,81	-117,00
-29057,99	-35,00
-28975,50	-57,00
-28893,34	-134,00
-28811,51	-103,00
-28730,00	-88,00
-28648,82	-35,00
-28567,97	-2,00
-28487,43	-107,00
-28407,21	-95,00
-28327,32	-101,00
-28247,73	-119,00
-28168,46	-3,00
-28089,50	-120,00
-28010,85	-186,00
-27932,51	-27,00
-27854,48	-36,00
-27776,75	-111,00
-27699,32	-53,00
-27622,19	-59,00
-27545,37	-71,00
-27468,84	-97,00
-27392,60	75,00
-27316,66	-188,00
-27241,01	-50,00
-27165,66	-28,00
-27090,59	-84,00
-27015,81	25,00
-26941,31	-78,00
-26867,10	-60,00
-26793,17	-101,00
-26719,52	-20,00
-26646,15	-165,00
-26573,06	-6,00
-26500,24	-229,00
-26427,70	-102,00
-26355,43	-120,00
-26283,43	-11,00
-26211,71	-1,00
-26140,25	-51,00
-26069,06	3,00
-25998,13	1,00
-25927,46	-131,00
-25857,06	-116,00
-25786,92	13,00
-25717,04	-41,00
-25647,42	-76,00
-25578,05	-23,00
-25508,94	-71,00
-25440,09	-60,00
-25371,48	-71,00
-25303,13	-21,00
-25235,02	-7,00
-25167,17	-43,00
-25099,56	-137,00
-25032,19	-92,00
-24965,07	-133,00
-24898,20	-32,00
-24831,56	14,00
-24765,17	-122,00
-24699,01	-73,00
-24633,10	-4,00
-24567,41	-127,00
-24501,97	-10,00
-24436,75	-77,00
-24371,77	-71,00
-24307,03	8,00
-24242,51	-121,00
-24178,22	-216,00
-24114,16	-113,00
-24050,32	-48,00
-23986,71	-70,00
-23923,32	-73,00
-23860,16	-53,00
-23797,22	-33,00
-23734,50	-198,00
-23672,00	-39,00
-23609,71	-83,00
-23547,65	-68,00
-23485,80	26,00
-23424,16	-42,00
-23362,74	-44,00
-23301,53	-180,00
-23240,54	-107,00
-23179,75	54,00
-23119,17	-84,00
-23058,80	-60,00
-22998,64	-22,00
-22938,68	-66,00
-22878,93	-51,00
-22819,39	-96,00
-22760,04	-190,00
-22700,90	-80,00
-22641,96	-33,00
-22583,22	-88,00
-22524,68	-71,00
-22466,33	-87,00
-22408,19	-58,00
-22350,23	-19,00
-22292,48	29,00
-22234,92	-56,00
-22177,55	-179,00
-22120,37	-84,00
-22063,38	-11,00
-22006,58	-42,00
-21949,98	-102,00
-21893,56	-22,00
-21837,33	-155,00
-21781,28	-77,00
-21725,42	-55,00
-21669,74	-65,00
-21614,25	-56,00
-21558,94	-100,00
-21503,81	-85,00
-21448,86	-121,00
-21394,10	-16,00
-21339,51	-39,00
-21285,10	-66,00
-21230,86	-63,00
-21176,81	-8,00
-21122,93	-131,00
-21069,22	-45,00
-21015,69	-24,00
-20962,33	-77,00
-20909,14	-42,00
-20856,13	35,00
-20803,28	-29,00
-20750,61	-55,00
-20698,10	-38,00
-20645,76	-95,00
-20593,59	-60,00
-20541,59	-93,00
-20489,75	-29,00
-20438,07	-95,00
-20386,56	57,00
-20335,22	-31,00
-20284,03	-58,00
-20233,01	104,00
-20182,15	-165,00
-20131,45	-79,00
-20080,91	-135,00
-20030,52	-115,00
-19980,30	-129,00
-19930,23	-65,00
-19880,32	-6,00
-19830,56	-86,00
-19780,96	-124,00
-19731,52	-24,00
-19682,23	-92,00
-19633,09	-183,00
-19584,10	-71,00
-19535,26	9,00
-19486,58	44,00
-19438,04	-85,00
-19389,66	-40,00
-19341,42	-26,00
-19293,33	-256,00
-19245,39	-88,00
-19197,60	-171,00
-19149,95	-102,00
-19102,45	-10,00
-19055,09	-61,00
-19007,87	0,00
-18960,80	-23,00
-18913,87	10,00
-18867,09	-80,00
-18820,44	-57,00
-18773,94	-46,00
-18727,57	-56,00
-18681,35	-56,00
-18635,26	-1,00
-18589,31	-10,00
-18543,50	-28,00
-18497,83	-61,00
-18452,29	-75,00
-18406,89	-151,00
-18361,63	-177,00
-18316,50	-29,00
-18271,50	-79,00
-18226,63	-133,00
-18181,90	28,00
-18137,30	-30,00
-18092,84	-90,00
-18048,50	-112,00
-18004,29	-100,00
-17960,22	-39,00
-17916,27	-46,00
-17872,45	-100,00
-17828,76	-94,00
-17785,20	-12,00
-17741,77	-95,00
-17698,46	-69,00
-17655,28	-138,00
-17612,22	-112,00
-17569,29	-93,00
-17526,48	36,00
-17483,79	-5,00
-17441,23	-179,00
-17398,79	-133,00
-17356,48	-55,00
-17314,28	7,00
-17272,21	57,00
-17230,26	-223,00
-17188,42	17,00
-17146,71	-79,00
-17105,12	-124,00
-17063,64	-25,00
-17022,28	-177,00
-16981,04	36,00
-16939,92	-15,00
-16898,91	-103,00
-16858,02	-98,00
-16817,25	-259,00
-16776,59	-55,00
-16736,04	-87,00
-16695,61	4,00
-16655,29	-165,00
-16615,09	-54,00
-16574,99	-46,00
-16535,01	-77,00
-16495,15	-84,00
-16455,39	-8,00
-16415,74	-149,00
-16376,21	-104,00
-16336,78	-39,00
-16297,46	-41,00
-16258,26	-68,00
-16219,16	-50,00
-16180,17	28,00
-16141,28	-63,00
-16102,51	-17,00
-16063,84	-95,00
-16025,27	10,00
-15986,82	-92,00
-15948,46	32,00
-15910,22	-111,00
-15872,07	-64,00
-15834,04	-101,00
-15796,10	-1,00
-15758,27	-109,00
-15720,54	-91,00
-15682,91	-34,00
-15645,39	-70,00
-15607,97	-5,00
-15570,64	-65,00
-15533,42	7,00
-15496,30	-120,00
-15459,28	28,00
-15422,36	3,00
-15385,54	-135,00
-15348,82	20,00
-15312,19	-67,00
-15275,66	-113,00
-15239,23	-87,00
-15202,90	-45,00
-15166,67	-151,00
-15130,53	-145,00
-15094,48	-57,00
-15058,54	-93,00
-15022,68	66,00
-14986,93	-40,00
-14951,26	-41,00
-14915,69	-121,00
-14880,22	-44,00
-14844,84	-39,00
-14809,55	-19,00
-14774,35	-182,00
-14739,25	-49,00
-14704,24	-98,00
-14669,32	-65,00
-14634,49	-101,00
-14599,75	-84,00
-14565,10	-120,00
-14530,55	-116,00
-14496,08	-147,00
-14461,70	-67,00
-14427,41	-38,00
-14393,21	-112,00
-14359,10	-94,00
-14325,07	20,00
-14291,14	-91,00
-14257,29	-118,00
-14223,52	-101,00
-14189,85	-70,00
-14156,26	-21,00
-14122,76	-99,00
-14089,34	-12,00
-14056,01	-136,00
-14022,76	-66,00
-13989,60	-47,00
-13956,52	-75,00
-13923,53	-133,00
-13890,62	-77,00
-13857,79	-145,00
-13825,05	-79,00
-13792,39	-41,00
-13759,81	-79,00
-13727,31	-75,00
-13694,90	-49,00
-13662,57	-33,00
-13630,31	-164,00
-13598,14	0,00
-13566,05	-127,00
-13534,05	-65,00
-13502,12	-61,00
-13470,27	-94,00
-13438,50	-107,00
-13406,80	-33,00
-13375,19	-79,00
-13343,66	-26,00
-13312,20	-73,00
-13280,83	0,00
-13249,53	-68,00
-13218,30	-87,00
-13187,16	-15,00
-13156,09	-64,00
-13125,10	-68,00
-13094,18	-69,00
-13063,34	-51,00
-13032,58	-16,00
-13001,89	-38,00
-12971,28	-11,00
-12940,74	-53,00
-12910,27	-109,00
-12879,88	-121,00
-12849,57	-42,00
-12819,33	-132,00
-12789,16	19,00
-12759,06	-105,00
-12729,04	-70,00
-12699,09	-278,00
-12669,21	-132,00
-12639,41	-114,00
-12609,68	-64,00
-12580,02	-25,00
-12550,43	-87,00
-12520,91	-82,00
-12491,46	-143,00
-12462,08	-89,00
-12432,77	-167,00
-12403,54	15,00
-12374,37	-97,00
-12345,27	-91,00
-12316,24	-17,00
-12287,29	-5,00
-12258,40	-23,00
-12229,57	24,00
-12200,82	-37,00
-12172,14	-75,00
-12143,52	39,00
-12114,97	11,00
-12086,49	-74,00
-12058,07	-149,00
-12029,73	18,00
-12001,44	-102,00
-11973,23	-105,00
-11945,08	-133,00
-11917,00	1,00
-11888,98	-96,00
-11861,03	-91,00
-11833,15	-37,00
-11805,32	-36,00
-11777,57	-44,00
-11749,88	-37,00
-11722,25	-84,00
-11694,69	-114,00
-11667,19	-105,00
-11639,75	-21,00
-11612,38	11,00
-11585,07	-136,00
-11557,83	53,00
-11530,65	-144,00
-11503,53	-73,00
-11476,47	-23,00
-11449,48	-156,00
-11422,54	-57,00
-11395,67	-25,00
-11368,86	-108,00
-11342,11	-162,00
-11315,43	-92,00
-11288,80	-102,00
-11262,23	-109,00
-11235,73	-107,00
-11209,28	-31,00
-11182,90	-50,00
-11156,57	-75,00
-11130,31	3,00
-11104,10	-44,00
-11077,96	-17,00
-11051,87	-9,00
-11025,84	-27,00
-10999,87	-26,00
-10973,96	-59,00
-10948,11	-51,00
-10922,31	-17,00
-10896,58	-94,00
-10870,90	-97,00
-10845,28	-32,00
-10819,71	95,00
-10794,20	-164,00
-10768,75	-43,00
-10743,36	-82,00
-10718,02	40,00
-10692,74	-25,00
-10667,52	-66,00
-10642,35	-104,00
-10617,24	-59,00
-10592,18	34,00
-10567,18	-63,00
-10542,23	38,00
-10517,34	-76,00
-10492,51	-35,00
-10467,72	-102,00
-10443,00	-112,00
-10418,32	62,00
-10393,70	-55,00
-10369,14	-31,00
-10344,63	11,00
-10320,17	17,00
-10295,77	31,00
-10271,42	-65,00
-10247,12	31,00
-10222,88	110,00
-10198,68	75,00
-10174,54	13,00
-10150,46	16,00
-10126,42	-11,00
-10102,44	80,00
-10078,51	8,00
-10054,63	-70,00
-10030,80	59,00
-10007,03	-11,00
-9983,30	12,00
-9959,63	153,00
-9936,01	84,00
-9912,44	90,00
-9888,92	92,00
-9865,44	77,00
-9842,02	101,00
-9818,65	126,00
-9795,33	208,00
-9772,06	180,00
-9748,84	81,00
-9725,67	226,00
-9702,55	222,00
-9679,47	270,00
-9656,45	255,00
-9633,47	284,00
-9610,55	245,00
-9587,67	362,00
-9564,84	342,00
-9542,06	549,00
-9519,32	475,00
-9496,64	585,00
-9474,00	724,00
-9451,41	726,00
-9428,87	622,00
-9406,37	698,00
-9383,92	499,00
-9361,52	584,00
-9339,17	623,00
-9316,86	800,00
-9294,60	937,00
-9272,38	964,00
-9250,21	1188,00
-9228,09	1390,00
-9206,01	1142,00
-9183,98	1054,00
-9162,00	861,00
-9140,06	1003,00
-9118,16	902,00
-9096,31	976,00
-9074,51	1093,00
-9052,75	1203,00
-9031,04	1094,00
-9009,37	905,00
-8987,74	880,00
-8966,16	626,00
-8944,63	602,00
-8923,14	448,00
-8901,69	685,00
-8880,29	725,00
-8858,93	866,00
-8837,61	997,00
-8816,34	931,00
-8795,11	1079,00
-8773,92	837,00
-8752,78	846,00
-8731,68	680,00
-8710,62	760,00
-8689,61	928,00
-8668,63	804,00
-8647,70	968,00
-8626,82	1031,00
-8605,97	911,00
-8585,17	846,00
-8564,41	630,00
-8543,69	683,00
-8523,01	597,00
-8502,37	580,00
-8481,78	768,00
-8461,23	772,00
-8440,71	897,00
-8420,24	1056,00
-8399,81	1041,00
-8379,42	1099,00
-8359,08	899,00
-8338,77	775,00
-8318,50	729,00
-8298,27	785,00
-8278,09	667,00
-8257,94	735,00
-8237,83	1029,00
-8217,76	981,00
-8197,74	959,00
-8177,75	1020,00
-8157,80	954,00
-8137,89	760,00
-8118,02	682,00
-8098,19	761,00
-8078,40	833,00
-8058,65	820,00
-8038,93	909,00
-8019,26	697,00
-7999,62	773,00
-7980,02	722,00
-7960,46	705,00
-7940,94	534,00
-7921,46	593,00
-7902,01	583,00
-7882,60	489,00
-7863,23	583,00
-7843,90	630,00
-7824,61	573,00
-7805,35	722,00
-7786,13	623,00
-7766,95	840,00
-7747,80	674,00
-7728,69	546,00
-7709,62	721,00
-7690,59	730,00
-7671,59	864,00
-7652,63	828,00
-7633,70	783,00
-7614,81	869,00
-7595,96	639,00
-7577,15	557,00
-7558,37	695,00
-7539,62	761,00
-7520,91	781,00
-7502,24	817,00
-7483,60	768,00
-7465,00	613,00
-7446,44	538,00
-7427,91	589,00
-7409,41	376,00
-7390,95	443,00
-7372,53	367,00
-7354,14	295,00
-7335,78	293,00
-7317,46	360,00
-7299,18	476,00
-7280,92	555,00
-7262,71	614,00
-7244,52	728,00
-7226,38	708,00
-7208,26	619,00
-7190,18	517,00
-7172,14	488,00
-7154,12	555,00
-7136,15	551,00
-7118,20	673,00
-7100,29	625,00
-7082,41	684,00
-7064,57	677,00
-7046,76	591,00
-7028,98	492,00
-7011,24	166,00
-6993,53	416,00
-6975,85	339,00
-6958,20	186,00
-6940,59	168,00
-6923,01	258,00
-6905,46	342,00
-6887,94	363,00
-6870,46	483,00
-6853,01	617,00
-6835,59	558,00
-6818,21	581,00
-6800,85	346,00
-6783,53	295,00
-6766,24	84,00
-6748,98	57,00
-6731,76	192,00
-6714,56	47,00
-6697,40	139,00
-6680,26	94,00
-6663,16	183,00
-6646,09	330,00
-6629,05	367,00
-6612,05	443,00
-6595,07	486,00
-6578,13	363,00
-6561,21	317,00
-6544,33	195,00
-6527,47	85,00
-6510,65	156,00
-6493,86	-37,00
-6477,10	-3,00
-6460,36	112,00
-6443,66	135,00
-6426,99	78,00
-6410,35	96,00
-6393,74	86,00
-6377,16	179,00
-6360,61	120,00
-6344,09	375,00
-6327,59	256,00
-6311,13	187,00
-6294,70	424,00
-6278,29	250,00
-6261,92	422,00
-6245,58	399,00
-6229,26	381,00
-6212,97	235,00
-6196,72	393,00
-6180,49	142,00
-6164,29	39,00
-6148,12	65,00
-6131,98	-68,00
-6115,86	5,00
-6099,78	-76,00
-6083,72	-145,00
-6067,69	-176,00
-6051,69	4,00
-6035,72	-124,00
-6019,78	178,00
-6003,87	153,00
-5987,98	111,00
-5972,12	261,00
-5956,29	240,00
-5940,49	226,00
-5924,71	94,00
-5908,96	-97,00
-5893,24	-67,00
-5877,55	-42,00
-5861,89	41,00
-5846,25	80,00
-5830,64	45,00
-5815,05	-95,00
-5799,50	89,00
-5783,97	37,00
-5768,47	121,00
-5752,99	174,00
-5737,55	176,00
-5722,12	154,00
-5706,73	290,00
-5691,36	170,00
-5676,02	-5,00
-5660,71	40,00
-5645,42	75,00
-5630,16	-18,00
-5614,92	51,00
-5599,71	233,00
-5584,53	94,00
-5569,37	152,00
-5554,24	899,00
-5539,14	88,00
-5524,06	158,00
-5509,01	104,00
-5493,98	192,00
-5478,98	70,00
-5464,00	-124,00
-5449,05	172,00
-5434,13	42,00
-5419,23	14,00
-5404,36	70,00
-5389,51	99,00
-5374,69	157,00
-5359,89	274,00
-5345,12	367,00
-5330,37	268,00
-5315,65	315,00
-5300,95	181,00
-5286,28	124,00
-5271,63	149,00
-5257,01	84,00
-5242,41	-2,00
-5227,84	-61,00
-5213,29	14,00
-5198,76	-31,00
-5184,26	-75,00
-5169,79	-114,00
-5155,33	88,00
-5140,91	5,00
-5126,51	113,00
-5112,13	173,00
-5097,77	114,00
-5083,44	-66,00
-5069,13	17,00
-5054,85	34,00
-5040,59	186,00
-5026,36	57,00
-5012,15	38,00
-4997,96	187,00
-4983,80	25,00
-4969,66	37,00
-4955,54	9,00
-4941,44	39,00
-4927,37	168,00
-4913,33	287,00
-4899,30	418,00
-4885,30	322,00
-4871,33	118,00
-4857,37	73,00
-4843,44	-46,00
-4829,53	-116,00
-4815,65	172,00
-4801,79	104,00
-4787,95	117,00
-4774,13	13,00
-4760,34	-4,00
-4746,56	-134,00
-4732,82	50,00
-4719,09	42,00
-4705,38	206,00
-4691,70	194,00
-4678,04	309,00
-4664,41	120,00
-4650,79	8,00
-4637,20	88,00
-4623,63	90,00
-4610,08	81,00
-4596,56	121,00
-4583,05	98,00
-4569,57	123,00
-4556,11	-74,00
-4542,67	-5,00
-4529,25	17,00
-4515,86	101,00
-4502,49	205,00
-4489,13	248,00
-4475,80	160,00
-4462,49	126,00
-4449,21	71,00
-4435,94	-68,00
-4422,70	36,00
-4409,47	141,00
-4396,27	12,00
-4383,09	53,00
-4369,93	0,00
-4356,79	-31,00
-4343,67	61,00
-4330,58	71,00
-4317,50	119,00
-4304,45	98,00
-4291,41	-19,00
-4278,40	-18,00
-4265,41	12,00
-4252,44	104,00
-4239,49	105,00
-4226,55	65,00
-4213,65	55,00
-4200,76	-23,00
-4187,89	74,00
-4175,04	21,00
-4162,21	-21,00
-4149,40	-41,00
-4136,61	-63,00
-4123,85	10,00
-4111,10	-84,00
-4098,37	-69,00
-4085,66	-8,00
-4072,98	-43,00
-4060,31	34,00
-4047,66	-128,00
-4035,04	-52,00
-4022,43	-50,00
-4009,84	-47,00
-3997,27	-8,00
-3984,72	-168,00
-3972,19	-105,00
-3959,69	-66,00
-3947,20	39,00
-3934,73	-152,00
-3922,27	21,00
-3909,84	-167,00
-3897,43	-4,00
-3885,04	78,00
-3872,67	-94,00
-3860,31	-11,00
-3847,98	-105,00
-3835,66	-32,00
-3823,36	-52,00
-3811,09	-63,00
-3798,83	-56,00
-3786,59	11,00
-3774,37	-130,00
-3762,17	-42,00
-3749,98	-78,00
-3737,82	-51,00
-3725,67	-118,00
-3713,55	-39,00
-3701,44	-136,00
-3689,35	-22,00
-3677,28	-33,00
-3665,22	-6,00
-3653,19	-231,00
-3641,17	-82,00
-3629,18	-27,00
-3617,20	-106,00
-3605,24	48,00
-3593,30	-108,00
-3581,37	-2,00
-3569,47	-49,00
-3557,58	-117,00
-3545,71	-60,00
-3533,86	-9,00
-3522,02	-23,00
-3510,21	-101,00
-3498,41	-118,00
-3486,63	-73,00
-3474,87	-32,00
-3463,12	-20,00
-3451,40	0,00
-3439,69	-53,00
-3428,00	-87,00
-3416,33	-128,00
-3404,67	-41,00
-3393,03	-166,00
-3381,41	-50,00
-3369,81	-50,00
-3358,22	-86,00
-3346,66	-29,00
-3335,10	-70,00
-3323,57	-12,00
-3312,06	-40,00
-3300,56	-12,00
-3289,08	-114,00
-3277,61	-211,00
-3266,16	-81,00
-3254,73	-7,00
-3243,32	-45,00
-3231,92	-28,00
-3220,55	-61,00
-3209,18	-70,00
-3197,84	-45,00
-3186,51	-41,00
-3175,20	-171,00
-3163,90	-59,00
-3152,63	-57,00
-3141,36	-117,00
-3130,12	-31,00
-3118,89	-18,00
-3107,68	10,00
-3096,49	-28,00
-3085,31	-124,00
-3074,15	-58,00
-3063,00	-24,00
-3051,87	-91,00
-3040,76	-10,00
-3029,67	-46,00
-3018,59	-59,00
-3007,52	-113,00
-2996,48	-145,00
-2985,44	-51,00
-2974,43	-78,00
-2963,43	-59,00
-2952,45	-74,00
-2941,48	-37,00
-2930,53	-121,00
-2919,60	13,00
-2908,68	-165,00
-2897,78	-73,00
-2886,89	-63,00
-2876,02	-39,00
-2865,17	-90,00
-2854,33	-96,00
-2843,50	-125,00
-2832,70	6,00
-2821,90	11,00
-2811,13	-51,00
-2800,37	-104,00
-2789,62	-84,00
-2778,89	-12,00
-2768,18	-20,00
-2757,48	-50,00
-2746,80	-97,00
-2736,13	-46,00
-2725,48	-13,00
-2714,84	-128,00
-2704,22	-146,00
-2693,61	-31,00
-2683,02	-103,00
-2672,45	-1,00
-2661,89	-113,00
-2651,34	-86,00
-2640,81	-131,00
-2630,30	-25,00
-2619,80	52,00
-2609,31	-87,00
-2598,84	-45,00
-2588,39	-18,00
-2577,95	-58,00
-2567,52	-79,00
-2557,11	-84,00
-2546,71	-165,00
-2536,33	-78,00
-2525,97	-11,00
-2515,62	-48,00
-2505,28	-47,00
-2494,96	-136,00
-2484,65	-120,00
-2474,36	-70,00
-2464,08	-54,00
-2453,82	30,00
-2443,57	-135,00
-2433,33	30,00
-2423,11	-135,00
-2412,91	-76,00
-2402,72	-55,00
-2392,54	-197,00
-2382,38	-43,00
-2372,23	8,00
-2362,09	-253,00
-2351,97	-62,00
-2341,87	0,00
-2331,78	-54,00
-2321,70	-59,00
-2311,64	-85,00
-2301,59	-31,00
-2291,55	-94,00
-2281,53	-147,00
-2271,53	-79,00
-2261,53	-146,00
-2251,55	-12,00
-2241,59	-122,00
-2231,64	76,00
-2221,70	-28,00
-2211,78	-55,00
-2201,87	-179,00
-2191,97	-56,00
-2182,09	-91,00
-2172,22	-29,00
-2162,37	-278,00
-2152,53	-54,00
-2142,70	-184,00
-2132,89	-41,00
-2123,09	-51,00
-2113,30	-59,00
-2103,53	-62,00
-2093,77	-129,00
-2084,02	-31,00
-2074,29	6,00
-2064,57	-65,00
-2054,86	-144,00
-2045,17	-70,00
-2035,49	-119,00
-2025,82	-92,00
-2016,17	-48,00
-2006,53	-54,00
-1996,91	-66,00
-1987,29	-75,00
-1977,69	-61,00
-1968,11	30,00
-1958,53	-93,00
-1948,97	2,00
-1939,42	-74,00
-1929,89	-55,00
-1920,37	-73,00
-1910,86	-73,00
-1901,36	-92,00
-1891,88	-110,00
-1882,41	-6,00
-1872,95	-87,00
-1863,51	81,00
-1854,08	-53,00
-1844,66	-77,00
-1835,26	-32,00
-1825,86	-54,00
-1816,48	-28,00
-1807,11	-78,00
-1797,76	-123,00
-1788,42	-10,00
-1779,09	-13,00
-1769,77	25,00
-1760,47	-95,00
-1751,17	-94,00
-1741,89	-47,00
-1732,63	-72,00
-1723,37	13,00
-1714,13	-88,00
-1704,90	-164,00
-1695,68	-6,00
-1686,48	8,00
-1677,29	103,00
-1668,11	-100,00
-1658,94	-12,00
-1649,78	-50,00
-1640,64	-71,00
-1631,51	81,00
-1622,39	-165,00
-1613,28	59,00
-1604,19	-44,00
-1595,10	-16,00
-1586,03	-14,00
-1576,97	-19,00
-1567,93	31,00
-1558,89	-49,00
-1549,87	-58,00
-1540,86	-106,00
-1531,86	-18,00
-1522,87	-153,00
-1513,90	-105,00
-1504,93	-46,00
-1495,98	-158,00
-1487,04	-27,00
-1478,12	87,00
-1469,20	-121,00
-1460,30	18,00
-1451,40	-62,00
-1442,52	-35,00
-1433,65	-15,00
-1424,80	-70,00
-1415,95	-143,00
-1407,12	105,00
-1398,30	-175,00
-1389,48	-155,00
-1380,69	-144,00
-1371,90	-74,00
-1363,12	-124,00
-1354,36	22,00
-1345,60	-66,00
-1336,86	-37,00
-1328,13	-27,00
-1319,41	-85,00
-1310,70	-120,00
-1302,01	-125,00
-1293,32	-82,00
-1284,65	-98,00
-1275,99	-90,00
-1267,33	-78,00
-1258,69	-19,00
-1250,06	25,00
-1241,45	-39,00
-1232,84	-132,00
-1224,25	-123,00
-1215,66	-44,00
-1207,09	-147,00
-1198,53	35,00
-1189,97	-63,00
-1181,43	16,00
-1172,91	-88,00
-1164,39	-61,00
-1155,88	-105,00
-1147,38	-47,00
-1138,90	29,00
-1130,43	-86,00
-1121,96	-26,00
-1113,51	-53,00
-1105,07	-97,00
-1096,64	-36,00
-1088,22	-28,00
-1079,81	-68,00
-1071,41	-159,00
-1063,02	40,00
-1054,65	-60,00
-1046,28	-70,00
-1037,92	-161,00
-1029,58	-149,00
-1021,24	-103,00
-1012,92	-15,00
-1004,61	44,00
-996,30	-76,00
-988,01	-51,00
-979,73	-47,00
-971,46	21,00
-963,20	-141,00
-954,95	-42,00
-946,71	-108,00
-938,48	-117,00
-930,26	-207,00
-922,06	-87,00
-913,86	95,00
-905,67	-72,00
-897,49	11,00
-889,33	-65,00
-881,17	-128,00
-873,02	41,00
-864,89	-108,00
-856,76	-92,00
-848,65	51,00
-840,54	-145,00
-832,45	-1,00
-824,36	-8,00
-816,29	51,00
-808,22	-202,00
-800,17	-22,00
-792,12	-28,00
-784,09	-13,00
-776,06	-122,00
-768,05	-27,00
-760,04	16,00
-752,05	-19,00
-744,07	-32,00
-736,09	-142,00
-728,13	-16,00
-720,17	-96,00
-712,23	-106,00
-704,29	19,00
-696,37	-164,00
-688,45	-111,00
-680,55	-108,00
-672,65	-13,00
-664,77	-19,00
-656,89	-42,00
-649,03	-116,00
-641,17	-125,00
-633,32	63,00
-625,49	-21,00
-617,66	-149,00
-609,84	-10,00
-602,03	-68,00
-594,23	-47,00
-586,45	16,00
-578,67	-3,00
-570,90	9,00
-563,14	-17,00
-555,39	-110,00
-547,65	-126,00
-539,91	-104,00
-532,19	36,00
-524,48	-48,00
-516,78	-70,00
-509,08	-113,00
-501,40	-41,00
-493,72	60,00
-486,06	13,00
-478,40	-99,00
-470,76	-8,00
-463,12	-31,00
-455,49	21,00
-447,87	-142,00
-440,26	-59,00
-432,66	-34,00
-425,07	-133,00
-417,49	-132,00
-409,92	-71,00
-402,35	-50,00
-394,80	5,00
-387,25	-33,00
-379,72	11,00
-372,19	-9,00
-364,67	-9,00
-357,17	-17,00
-349,67	2,00
-342,18	38,00
-334,69	7,00
-327,22	14,00
-319,76	-27,00
-312,30	-5,00
-304,86	22,00
-297,42	-17,00
-290,00	-49,00
-282,58	-19,00
-275,17	104,00
-267,77	-27,00
-260,37	15,00
-252,99	-127,00
-245,62	109,00
-238,25	-17,00
-230,90	103,00
-223,55	50,00
-216,21	133,00
-208,88	196,00
-201,56	143,00
-194,25	103,00
-186,94	251,00
-179,65	316,00
-172,36	229,00
-165,08	404,00
-157,81	255,00
-150,55	251,00
-143,30	437,00
-136,06	333,00
-128,82	446,00
-121,60	623,00
-114,38	586,00
-107,17	667,00
-99,97	693,00
-92,78	826,00
-85,60	1006,00
-78,42	1275,00
-71,25	1501,00
-64,10	1629,00
-56,95	2006,00
-49,81	2475,00
-42,67	2927,00
-35,55	3826,00
-28,43	5086,00
-21,33	8244,00
-14,23	26446,00
-7,14	56043,00
-0,05	55763,00
7,02	55513,00
14,09	55717,00
21,14	27597,00
28,19	11261,00
35,23	6866,00
42,27	4999,00
49,29	4161,00
56,31	3510,00
63,32	2854,00
70,32	2386,00
77,31	2054,00
84,29	1727,00
91,27	1468,00
98,23	1465,00
105,19	1236,00
112,14	1318,00
119,09	1952,00
126,02	3165,00
132,95	3843,00
139,87	4019,00
146,78	3910,00
153,68	3985,00
160,58	3904,00
167,46	3767,00
174,34	3756,00
181,21	3775,00
188,08	3826,00
194,93	3683,00
201,78	3695,00
208,62	3758,00
215,45	3710,00
222,27	3842,00
229,09	3743,00
235,90	3743,00
242,70	3717,00
249,49	3656,00
256,27	3696,00
263,05	3625,00
269,82	3511,00
276,58	3567,00
283,33	3514,00
290,08	3565,00
296,82	3437,00
303,55	3380,00
310,27	3486,00
316,98	3278,00
323,69	3241,00
330,39	3227,00
337,08	3324,00
343,76	3401,00
350,44	3370,00
357,11	3273,00
363,77	3299,00
370,42	3248,00
377,07	3090,00
383,71	3226,00
390,34	3295,00
396,96	3219,00
403,58	3288,00
410,19	3202,00
416,79	3264,00
423,38	3282,00
429,97	3182,00
436,55	2979,00
443,12	3043,00
449,68	2946,00
456,24	3025,00
462,79	3010,00
469,33	2946,00
475,86	2929,00
482,39	2979,00
488,91	2955,00
495,42	2900,00
501,93	2863,00
508,42	2797,00
514,91	2841,00
521,40	2786,00
527,87	2659,00
534,34	2677,00
540,80	2657,00
547,25	2626,00
553,70	2685,00
560,14	2581,00
566,57	2718,00
573,00	2724,00
579,41	2616,00
585,83	2719,00
592,23	2614,00
598,62	2415,00
605,01	2535,00
611,40	2475,00
617,77	2459,00
624,14	2399,00
630,50	2513,00
636,85	2453,00
643,20	2388,00
649,54	2366,00
655,87	2374,00
662,20	2374,00
668,52	2391,00
674,83	2313,00
681,13	2418,00
687,43	2243,00
693,72	2224,00
700,00	2276,00
706,28	2278,00
712,55	2243,00
718,81	2222,00
725,07	2169,00
731,32	2192,00
737,56	2277,00
743,79	2264,00
750,02	2168,00
756,24	2225,00
762,46	2153,00
768,67	2037,00
774,87	2172,00
781,06	2256,00
787,25	2049,00
793,43	2180,00
799,60	2078,00
805,77	2056,00
811,93	2091,00
818,08	2040,00
824,23	2206,00
830,37	2024,00
836,50	1958,00
842,63	2130,00
848,75	2040,00
854,87	1930,00
860,97	2029,00
867,07	2001,00
873,17	1980,00
879,25	1932,00
885,33	1959,00
891,41	1997,00
897,47	1859,00
903,53	1890,00
909,59	1832,00
915,63	1894,00
921,67	1801,00
927,71	1946,00
933,74	1811,00
939,76	1795,00
945,77	1778,00
951,78	1828,00
957,78	1750,00
963,78	1791,00
969,77	1740,00
975,75	1737,00
981,72	1802,00
987,69	1737,00
993,66	1860,00
999,61	1715,00
1005,56	1764,00
1011,51	1868,00
1017,44	1759,00
1023,37	1758,00
1029,30	1713,00
1035,22	1732,00
1041,13	1757,00
1047,03	1738,00
1052,93	1775,00
1058,83	1950,00
1064,71	1959,00
1070,59	1988,00
1076,47	1771,00
1082,33	1668,00
1088,20	1662,00
1094,05	1694,00
1099,90	1681,00
1105,74	1558,00
1111,58	1631,00
1117,41	1660,00
1123,23	1676,00
1129,05	1994,00
1134,86	1809,00
1140,67	1626,00
1146,47	1642,00
1152,26	1654,00
1158,05	1605,00
1163,83	1620,00
1169,60	1694,00
1175,37	1469,00
1181,13	1572,00
1186,89	1526,00
1192,64	1488,00
1198,38	1544,00
1204,12	1648,00
1209,85	1434,00
1215,58	1457,00
1221,30	1566,00
1227,02	1525,00
1232,72	1710,00
1238,43	1582,00
1244,12	1508,00
1249,81	1598,00
1255,50	1571,00
1261,17	1507,00
1266,85	1601,00
1272,51	1617,00
1278,17	1457,00
1283,83	1848,00
1289,47	1867,00
1295,12	1999,00
1300,75	1892,00
1306,38	1848,00
1312,01	1592,00
1317,63	1606,00
1323,24	1572,00
1328,85	1620,00
1334,45	1689,00
1340,04	1602,00
1345,63	1598,00
1351,22	1562,00
1356,80	1614,00
1362,37	1729,00
1367,93	1794,00
1373,49	1670,00
1379,05	1862,00
1384,60	1693,00
1390,14	1648,00
1395,68	1521,00
1401,21	1686,00
1406,74	1750,00
1412,26	1716,00
1417,77	1829,00
1423,28	1892,00
1428,78	1874,00
1434,28	2001,00
1439,77	2005,00
1445,26	2025,00
1450,74	1902,00
1456,22	1793,00
1461,68	1868,00
1467,15	1695,00
1472,61	1682,00
1478,06	1627,00
1483,51	1508,00
1488,95	1557,00
1494,38	1598,00
1499,81	1593,00
1505,24	1503,00
1510,65	1470,00
1516,07	1369,00
1521,48	1396,00
1526,88	1536,00
1532,27	1346,00
1537,67	1406,00
1543,05	1510,00
1548,43	1401,00
1553,81	1392,00
1559,18	1216,00
1564,54	1521,00
1569,90	1406,00
1575,25	1369,00
1580,60	1321,00
1585,94	1420,00
1591,28	1312,00
1596,61	1390,00
1601,93	1389,00
1607,25	1294,00
1612,57	1338,00
1617,88	1282,00
1623,18	1374,00
1628,48	1214,00
1633,77	1283,00
1639,06	1367,00
1644,34	1275,00
1649,62	1200,00
1654,89	1258,00
1660,16	1146,00
1665,42	1161,00
1670,67	1271,00
1675,92	1220,00
1681,17	1260,00
1686,41	1197,00
1691,64	1090,00
1696,87	1205,00
1702,10	1087,00
1707,32	1184,00
1712,53	1260,00
1717,74	1020,00
1722,94	1220,00
1728,14	1085,00
1733,33	1181,00
1738,52	1056,00
1743,70	1157,00
1748,88	1150,00
1754,05	998,00
1759,22	1132,00
1764,38	-378,00
1769,53	958,00
1774,69	825,00
1779,83	1041,00
1784,97	1016,00
1790,11	969,00
1795,24	1065,00
1800,36	870,00
1805,48	1108,00
1810,60	1022,00
1815,71	917,00
1820,82	918,00
1825,92	782,00
1831,01	823,00
1836,10	910,00
1841,19	894,00
1846,26	873,00
1851,34	874,00
1856,41	886,00
1861,47	874,00
1866,53	843,00
1871,59	793,00
1876,64	840,00
1881,68	917,00
1886,72	829,00
1891,76	862,00
1896,79	892,00
1901,81	745,00
1906,83	824,00
1911,85	738,00
1916,86	829,00
1921,86	823,00
1926,86	861,00
1931,86	686,00
1936,85	702,00
1941,83	781,00
1946,81	761,00
1951,79	795,00
1956,76	665,00
1961,72	712,00
1966,68	750,00
1971,64	709,00
1976,59	665,00
1981,54	650,00
1986,48	643,00
1991,42	682,00
1996,35	727,00
2001,27	603,00
2006,20	660,00
2011,11	613,00
2016,03	654,00
2020,93	632,00
2025,84	590,00
2030,73	663,00
2035,63	616,00
2040,52	629,00
2045,40	553,00
2050,28	507,00
2055,15	668,00
2060,02	593,00
2064,89	573,00
2069,75	476,00
2074,60	548,00
2079,46	505,00
2084,30	560,00
2089,14	505,00
2093,98	459,00
2098,81	557,00
2103,64	468,00
2108,46	610,00
2113,28	639,00
2118,09	523,00
2122,90	601,00
2127,70	576,00
2132,50	583,00
2137,30	427,00
2142,09	479,00
2146,87	597,00
2151,66	585,00
2156,43	472,00
2161,20	629,00
2165,97	431,00
2170,73	502,00
2175,49	475,00
2180,24	492,00
2184,99	560,00
2189,74	462,00
2194,48	406,00
2199,21	520,00
2203,94	462,00
2208,67	564,00
2213,39	407,00
2218,11	435,00
2222,82	373,00
2227,53	376,00
2232,23	386,00
2236,93	614,00
2241,63	493,00
2246,32	574,00
2251,00	377,00
2255,68	434,00
2260,36	433,00
2265,03	349,00
2269,70	418,00
2274,36	357,00
2279,02	389,00
2283,68	299,00
2288,33	340,00
2292,97	439,00
2297,61	359,00
2302,25	371,00
2306,88	397,00
2311,51	324,00
2316,14	340,00
2320,75	306,00
2325,37	384,00
2329,98	288,00
2334,59	364,00
2339,19	389,00
2343,79	249,00
2348,38	375,00
2352,97	312,00
2357,55	339,00
2362,13	277,00
2366,71	330,00
2371,28	431,00
2375,85	271,00
2380,41	376,00
2384,97	253,00
2389,52	255,00
2394,07	309,00
2398,62	174,00
2403,16	306,00
2407,70	313,00
2412,23	289,00
2416,76	334,00
2421,29	232,00
2425,81	180,00
2430,32	328,00
2434,84	286,00
2439,34	219,00
2443,85	295,00
2448,35	423,00
2452,84	304,00
2457,33	275,00
2461,82	330,00
2466,30	319,00
2470,78	254,00
2475,25	246,00
2479,72	244,00
2484,19	254,00
2488,65	233,00
2493,11	231,00
2497,56	288,00
2502,01	291,00
2506,46	263,00
2510,90	165,00
2515,34	294,00
2519,77	284,00
2524,20	191,00
2528,62	268,00
2533,04	147,00
2537,46	264,00
2541,87	272,00
2546,28	178,00
2550,68	353,00
2555,08	203,00
2559,48	287,00
2563,87	257,00
2568,26	224,00
2572,64	101,00
2577,02	243,00
2581,40	271,00
2585,77	203,00
2590,14	343,00
2594,50	256,00
2598,86	210,00
2603,22	153,00
2607,57	216,00
2611,92	104,00
2616,26	128,00
2620,60	125,00
2624,94	219,00
2629,27	69,00
2633,60	96,00
2637,92	186,00
2642,24	62,00
2646,56	173,00
2650,87	204,00
2655,18	249,00
2659,48	159,00
2663,78	205,00
2668,08	89,00
2672,37	240,00
2676,66	183,00
2680,95	252,00
2685,23	148,00
2689,50	79,00
2693,78	160,00
2698,05	202,00
2702,31	171,00
2706,57	136,00
2710,83	77,00
2715,08	216,00
2719,33	82,00
2723,58	195,00
2727,82	240,00
2732,06	237,00
2736,29	104,00
2740,53	195,00
2744,75	157,00
2748,97	250,00
2753,19	223,00
2757,41	206,00
2761,62	214,00
2765,83	190,00
2770,03	109,00
2774,23	102,00
2778,43	127,00
2782,62	186,00
2786,81	117,00
2791,00	134,00
2795,18	225,00
2799,35	232,00
2803,53	219,00
2807,70	247,00
2811,86	190,00
2816,03	58,00
2820,19	266,00
2824,34	193,00
2828,49	213,00
2832,64	164,00
2836,78	298,00
2840,92	380,00
2845,06	552,00
2849,19	661,00
2853,32	588,00
2857,45	451,00
2861,57	462,00
2865,69	520,00
2869,80	446,00
2873,91	460,00
2878,02	524,00
2882,12	496,00
2886,22	599,00
2890,32	535,00
2894,41	490,00
2898,50	380,00
2902,58	450,00
2906,67	466,00
2910,74	463,00
2914,82	350,00
2918,89	344,00
2922,96	367,00
2927,02	287,00
2931,08	265,00
2935,13	218,00
2939,19	199,00
2943,24	331,00
2947,28	244,00
2951,32	79,00
2955,36	191,00
2959,40	47,00
2963,43	59,00
2967,46	35,00
2971,48	126,00
2975,50	180,00
2979,52	-9,00
2983,53	99,00
2987,54	109,00
2991,55	80,00
2995,55	79,00
2999,55	40,00
3003,54	-1,00
3007,54	10,00
3011,53	-1,00
3015,51	56,00
3019,49	165,00
3023,47	-55,00
3027,45	71,00
3031,42	48,00
3035,39	61,00
3039,35	1,00
3043,31	14,00
3047,27	96,00
3051,22	0,00
3055,17	99,00
3059,12	-38,00
3063,06	-2,00
3067,00	143,00
3070,94	27,00
3074,87	71,00
3078,80	-65,00
3082,73	88,00
3086,65	31,00
3090,57	2,00
3094,49	25,00
3098,40	-22,00
3102,31	59,00
3106,22	53,00
3110,12	-14,00
3114,02	-9,00
3117,92	-87,00
3121,81	23,00
3125,70	46,00
3129,58	-19,00
3133,47	30,00
3137,34	43,00
3141,22	-77,00
3145,09	-13,00
3148,96	-57,00
3152,83	127,00
3156,69	29,00
3160,55	40,00
3164,40	41,00
3168,26	82,00
3172,10	34,00
3175,95	11,00
3179,79	89,00
3183,63	11,00
3187,47	-32,00
3191,30	-158,00
3195,13	29,00
3198,95	-22,00
3202,78	2,00
3206,60	58,00
3210,41	49,00
3214,23	24,00
3218,03	28,00
3221,84	-30,00
3225,64	44,00
3229,44	-1,00
3233,24	-64,00
3237,03	5,00
3240,82	20,00
3244,61	46,00
3248,39	11,00
3252,17	77,00
3255,95	-36,00
3259,72	-41,00
3263,49	-4,00
3267,26	30,00
3271,03	-27,00
3274,79	3,00
3278,54	36,00
3282,30	-2,00
3286,05	127,00
3289,80	-24,00
3293,54	-7,00
3297,29	-77,00
3301,02	102,00
3304,76	0,00
3308,49	-14,00
3312,22	86,00
3315,95	-31,00
3319,67	-54,00
3323,39	-27,00
3327,10	-59,00
3330,82	55,00
3334,53	34,00
3338,24	-7,00
3341,94	-50,00
3345,64	19,00
3349,34	96,00
3353,03	23,00
3356,72	-16,00
3360,41	102,00
3364,10	1,00
3367,78	59,00
3371,46	-29,00
3375,13	58,00
3378,81	90,00
3382,48	15,00
3386,14	-37,00
3389,81	-55,00
3393,47	-109,00
3397,12	19,00
3400,78	-4,00
3404,43	-31,00
3408,08	-11,00
3411,72	-30,00
3415,36	27,00
3419,00	29,00
3422,64	48,00
3426,27	22,00
3429,90	105,00
3433,53	-49,00
3437,15	-112,00
3440,77	-4,00
3444,39	169,00
3448,00	123,00
3451,62	-28,00
3455,22	11,00
3458,83	-78,00
3462,43	-51,00
3466,03	-61,00
3469,63	5,00
3473,22	-38,00
3476,81	9,00
3480,40	-121,00
3483,99	-13,00
3487,57	72,00
3491,15	-82,00
3494,72	-18,00
3498,29	32,00
3501,86	-56,00
3505,43	-54,00
3508,99	-56,00
3512,56	-12,00
3516,11	-1,00
3519,67	-69,00
3523,22	-57,00
3526,77	-2,00
3530,32	-61,00
3533,86	3,00
3537,40	-118,00
3540,94	-88,00
3544,47	-98,00
3548,00	-76,00
3551,53	-33,00
3555,06	-183,00
3558,58	-26,00
3562,10	-129,00
3565,62	-63,00
3569,13	-129,00
3572,64	-104,00
3576,15	-45,00
3579,66	-84,00
3583,16	-66,00
3586,66	-71,00
3590,16	-77,00
3593,65	-134,00
3597,14	-45,00
3600,63	-75,00
3604,11	-15,00
3607,60	-68,00
3611,08	-25,00
3614,55	-32,00
3618,03	-23,00
3621,50	-137,00
3624,97	-8,00
3628,43	-123,00
3631,90	-87,00
3635,36	-77,00
3638,81	-35,00
3642,27	-42,00
3645,72	54,00
3649,17	-17,00
3652,61	-28,00
3656,06	-88,00
3659,50	-28,00
3662,93	-125,00
3666,37	96,00
3669,80	-64,00
3673,23	-29,00
3676,65	-54,00
3680,08	-59,00
3683,50	-18,00
3686,92	42,00
3690,33	-126,00
3693,74	19,00
3697,15	-51,00
3700,56	-46,00
3703,96	34,00
3707,36	-137,00
3710,76	-33,00
3714,16	5,00
3717,55	4,00
3720,94	67,00
3724,33	-14,00
3727,71	-77,00
3731,10	-37,00
3734,48	48,00
3737,85	-98,00
3741,23	-76,00
3744,60	-66,00
3747,97	1,00
3751,33	-35,00
3754,69	31,00
3758,05	-55,00
3761,41	-31,00
3764,77	19,00
3768,12	-85,00
3771,47	0,00
3774,82	16,00
3778,16	-6,00
3781,50	6,00
3784,84	3,00
3788,18	-1,00
>>>>>End Processed Spectral Data<<<<<
