SpectraSuite Data File
++++++++++++++++++++++++++++++++++++
Date: Wed Feb 11 17:15:32 ICT 2026
User: Administrator
Dark Spectrum Present: Yes
Reference Spectrum Present: No
Number of Sampled Component Spectra: 1
Spectrometers: MAYP113682
Integration Time (usec): 3000000 (MAYP113682)
Spectra Averaged: 1 (MAYP113682)
Boxcar Smoothing: 0 (MAYP113682)
Correct for Electrical Dark: No (MAYP113682)
Strobe/Lamp Enabled: No (MAYP113682)
Correct for Detector Non-linearity: No (MAYP113682)
Correct for Stray Light: No (MAYP113682)
Number of Pixels in Processed Spectrum: 2068
>>>>>Begin Processed Spectral Data<<<<<
-37534,58	15,00
-37414,56	4,00
-37295,11	-4,00
-37176,24	6,00
-37057,95	105,00
-36940,22	65,00
-36823,05	92,00
-36706,45	191,00
-36590,40	219,00
-36474,90	111,00
-36359,95	147,00
-36245,55	106,00
-36131,68	143,00
-36018,35	118,00
-35905,55	242,00
-35793,29	147,00
-35681,54	179,00
-35570,32	159,00
-35459,62	165,00
-35349,43	105,00
-35239,75	223,00
-35130,58	245,00
-35021,91	89,00
-34913,74	56,00
-34806,07	111,00
-34698,89	187,00
-34592,20	207,00
-34486,00	99,00
-34380,28	244,00
-34275,04	134,00
-34170,27	156,00
-34065,98	113,00
-33962,16	156,00
-33858,81	244,00
-33755,92	131,00
-33653,49	22,00
-33551,52	88,00
-33450,01	8,00
-33348,94	153,00
-33248,33	156,00
-33148,16	150,00
-33048,43	149,00
-32949,14	168,00
-32850,29	107,00
-32751,87	192,00
-32653,89	128,00
-32556,33	203,00
-32459,20	172,00
-32362,49	286,00
-32266,19	191,00
-32170,32	182,00
-32074,86	144,00
-31979,82	112,00
-31885,18	139,00
-31790,95	261,00
-31697,12	213,00
-31603,69	160,00
-31510,67	120,00
-31418,04	222,00
-31325,80	103,00
-31233,95	297,00
-31142,49	175,00
-31051,42	159,00
-30960,73	127,00
-30870,43	202,00
-30780,50	123,00
-30690,95	88,00
-30601,77	179,00
-30512,97	128,00
-30424,53	235,00
-30336,46	175,00
-30248,76	181,00
-30161,42	72,00
-30074,44	215,00
-29987,81	134,00
-29901,55	134,00
-29815,63	245,00
-29730,07	122,00
-29644,86	154,00
-29560,00	151,00
-29475,48	221,00
-29391,30	52,00
-29307,47	145,00
-29223,97	138,00
-29140,81	117,00
-29057,99	121,00
-28975,50	124,00
-28893,34	118,00
-28811,51	98,00
-28730,00	134,00
-28648,82	243,00
-28567,97	194,00
-28487,43	129,00
-28407,21	113,00
-28327,32	80,00
-28247,73	159,00
-28168,46	216,00
-28089,50	83,00
-28010,85	52,00
-27932,51	130,00
-27854,48	74,00
-27776,75	121,00
-27699,32	117,00
-27622,19	165,00
-27545,37	184,00
-27468,84	178,00
-27392,60	262,00
-27316,66	79,00
-27241,01	134,00
-27165,66	135,00
-27090,59	138,00
-27015,81	48,00
-26941,31	159,00
-26867,10	232,00
-26793,17	150,00
-26719,52	216,00
-26646,15	105,00
-26573,06	164,00
-26500,24	185,00
-26427,70	152,00
-26355,43	160,00
-26283,43	131,00
-26211,71	106,00
-26140,25	184,00
-26069,06	162,00
-25998,13	124,00
-25927,46	180,00
-25857,06	127,00
-25786,92	214,00
-25717,04	67,00
-25647,42	136,00
-25578,05	121,00
-25508,94	161,00
-25440,09	151,00
-25371,48	112,00
-25303,13	170,00
-25235,02	190,00
-25167,17	253,00
-25099,56	144,00
-25032,19	132,00
-24965,07	122,00
-24898,20	101,00
-24831,56	158,00
-24765,17	152,00
-24699,01	139,00
-24633,10	181,00
-24567,41	161,00
-24501,97	66,00
-24436,75	79,00
-24371,77	105,00
-24307,03	139,00
-24242,51	98,00
-24178,22	93,00
-24114,16	123,00
-24050,32	195,00
-23986,71	159,00
-23923,32	170,00
-23860,16	14,00
-23797,22	188,00
-23734,50	106,00
-23672,00	161,00
-23609,71	79,00
-23547,65	88,00
-23485,80	185,00
-23424,16	141,00
-23362,74	239,00
-23301,53	50,00
-23240,54	166,00
-23179,75	165,00
-23119,17	154,00
-23058,80	150,00
-22998,64	104,00
-22938,68	179,00
-22878,93	164,00
-22819,39	95,00
-22760,04	189,00
-22700,90	83,00
-22641,96	104,00
-22583,22	206,00
-22524,68	92,00
-22466,33	94,00
-22408,19	136,00
-22350,23	182,00
-22292,48	177,00
-22234,92	135,00
-22177,55	133,00
-22120,37	178,00
-22063,38	175,00
-22006,58	133,00
-21949,98	117,00
-21893,56	138,00
-21837,33	181,00
-21781,28	135,00
-21725,42	187,00
-21669,74	139,00
-21614,25	141,00
-21558,94	122,00
-21503,81	147,00
-21448,86	69,00
-21394,10	218,00
-21339,51	120,00
-21285,10	144,00
-21230,86	101,00
-21176,81	182,00
-21122,93	261,00
-21069,22	125,00
-21015,69	161,00
-20962,33	96,00
-20909,14	125,00
-20856,13	152,00
-20803,28	190,00
-20750,61	192,00
-20698,10	149,00
-20645,76	162,00
-20593,59	141,00
-20541,59	144,00
-20489,75	174,00
-20438,07	144,00
-20386,56	272,00
-20335,22	228,00
-20284,03	144,00
-20233,01	175,00
-20182,15	134,00
-20131,45	81,00
-20080,91	157,00
-20030,52	111,00
-19980,30	105,00
-19930,23	79,00
-19880,32	294,00
-19830,56	101,00
-19780,96	188,00
-19731,52	130,00
-19682,23	221,00
-19633,09	-49,00
-19584,10	39,00
-19535,26	29,00
-19486,58	236,00
-19438,04	260,00
-19389,66	181,00
-19341,42	218,00
-19293,33	-11,00
-19245,39	186,00
-19197,60	97,00
-19149,95	110,00
-19102,45	293,00
-19055,09	145,00
-19007,87	193,00
-18960,80	256,00
-18913,87	265,00
-18867,09	91,00
-18820,44	116,00
-18773,94	243,00
-18727,57	27,00
-18681,35	289,00
-18635,26	150,00
-18589,31	120,00
-18543,50	175,00
-18497,83	120,00
-18452,29	91,00
-18406,89	59,00
-18361,63	179,00
-18316,50	110,00
-18271,50	79,00
-18226,63	156,00
-18181,90	200,00
-18137,30	282,00
-18092,84	143,00
-18048,50	168,00
-18004,29	128,00
-17960,22	136,00
-17916,27	182,00
-17872,45	178,00
-17828,76	66,00
-17785,20	136,00
-17741,77	117,00
-17698,46	190,00
-17655,28	123,00
-17612,22	222,00
-17569,29	94,00
-17526,48	233,00
-17483,79	179,00
-17441,23	-37,00
-17398,79	103,00
-17356,48	130,00
-17314,28	221,00
-17272,21	141,00
-17230,26	135,00
-17188,42	93,00
-17146,71	220,00
-17105,12	103,00
-17063,64	141,00
-17022,28	89,00
-16981,04	248,00
-16939,92	181,00
-16898,91	210,00
-16858,02	86,00
-16817,25	58,00
-16776,59	97,00
-16736,04	110,00
-16695,61	221,00
-16655,29	202,00
-16615,09	107,00
-16574,99	255,00
-16535,01	165,00
-16495,15	103,00
-16455,39	155,00
-16415,74	54,00
-16376,21	119,00
-16336,78	152,00
-16297,46	85,00
-16258,26	116,00
-16219,16	173,00
-16180,17	184,00
-16141,28	186,00
-16102,51	199,00
-16063,84	132,00
-16025,27	142,00
-15986,82	123,00
-15948,46	228,00
-15910,22	207,00
-15872,07	162,00
-15834,04	85,00
-15796,10	123,00
-15758,27	226,00
-15720,54	157,00
-15682,91	166,00
-15645,39	178,00
-15607,97	132,00
-15570,64	183,00
-15533,42	98,00
-15496,30	26,00
-15459,28	180,00
-15422,36	131,00
-15385,54	198,00
-15348,82	162,00
-15312,19	210,00
-15275,66	71,00
-15239,23	103,00
-15202,90	119,00
-15166,67	109,00
-15130,53	109,00
-15094,48	142,00
-15058,54	188,00
-15022,68	201,00
-14986,93	248,00
-14951,26	154,00
-14915,69	35,00
-14880,22	235,00
-14844,84	145,00
-14809,55	128,00
-14774,35	128,00
-14739,25	126,00
-14704,24	26,00
-14669,32	140,00
-14634,49	104,00
-14599,75	166,00
-14565,10	69,00
-14530,55	121,00
-14496,08	63,00
-14461,70	208,00
-14427,41	110,00
-14393,21	-4,00
-14359,10	44,00
-14325,07	140,00
-14291,14	167,00
-14257,29	187,00
-14223,52	187,00
-14189,85	166,00
-14156,26	231,00
-14122,76	148,00
-14089,34	160,00
-14056,01	17,00
-14022,76	46,00
-13989,60	108,00
-13956,52	161,00
-13923,53	68,00
-13890,62	77,00
-13857,79	82,00
-13825,05	57,00
-13792,39	64,00
-13759,81	168,00
-13727,31	146,00
-13694,90	185,00
-13662,57	174,00
-13630,31	112,00
-13598,14	254,00
-13566,05	103,00
-13534,05	106,00
-13502,12	166,00
-13470,27	183,00
-13438,50	129,00
-13406,80	194,00
-13375,19	101,00
-13343,66	159,00
-13312,20	241,00
-13280,83	145,00
-13249,53	180,00
-13218,30	51,00
-13187,16	171,00
-13156,09	128,00
-13125,10	207,00
-13094,18	85,00
-13063,34	282,00
-13032,58	176,00
-13001,89	117,00
-12971,28	159,00
-12940,74	133,00
-12910,27	218,00
-12879,88	160,00
-12849,57	246,00
-12819,33	212,00
-12789,16	184,00
-12759,06	171,00
-12729,04	152,00
-12699,09	-619,00
-12669,21	144,00
-12639,41	155,00
-12609,68	151,00
-12580,02	128,00
-12550,43	51,00
-12520,91	107,00
-12491,46	155,00
-12462,08	131,00
-12432,77	98,00
-12403,54	174,00
-12374,37	220,00
-12345,27	111,00
-12316,24	153,00
-12287,29	159,00
-12258,40	125,00
-12229,57	179,00
-12200,82	139,00
-12172,14	77,00
-12143,52	269,00
-12114,97	84,00
-12086,49	186,00
-12058,07	48,00
-12029,73	227,00
-12001,44	235,00
-11973,23	170,00
-11945,08	200,00
-11917,00	164,00
-11888,98	269,00
-11861,03	129,00
-11833,15	214,00
-11805,32	180,00
-11777,57	117,00
-11749,88	275,00
-11722,25	96,00
-11694,69	177,00
-11667,19	84,00
-11639,75	215,00
-11612,38	209,00
-11585,07	114,00
-11557,83	167,00
-11530,65	56,00
-11503,53	225,00
-11476,47	157,00
-11449,48	171,00
-11422,54	173,00
-11395,67	136,00
-11368,86	142,00
-11342,11	161,00
-11315,43	212,00
-11288,80	94,00
-11262,23	205,00
-11235,73	75,00
-11209,28	191,00
-11182,90	187,00
-11156,57	164,00
-11130,31	66,00
-11104,10	119,00
-11077,96	214,00
-11051,87	124,00
-11025,84	138,00
-10999,87	155,00
-10973,96	61,00
-10948,11	105,00
-10922,31	241,00
-10896,58	162,00
-10870,90	186,00
-10845,28	228,00
-10819,71	169,00
-10794,20	159,00
-10768,75	158,00
-10743,36	5,00
-10718,02	129,00
-10692,74	246,00
-10667,52	119,00
-10642,35	200,00
-10617,24	168,00
-10592,18	255,00
-10567,18	109,00
-10542,23	167,00
-10517,34	112,00
-10492,51	108,00
-10467,72	74,00
-10443,00	155,00
-10418,32	336,00
-10393,70	83,00
-10369,14	133,00
-10344,63	189,00
-10320,17	183,00
-10295,77	157,00
-10271,42	128,00
-10247,12	259,00
-10222,88	252,00
-10198,68	235,00
-10174,54	184,00
-10150,46	151,00
-10126,42	158,00
-10102,44	242,00
-10078,51	158,00
-10054,63	113,00
-10030,80	253,00
-10007,03	312,00
-9983,30	118,00
-9959,63	311,00
-9936,01	133,00
-9912,44	142,00
-9888,92	238,00
-9865,44	223,00
-9842,02	200,00
-9818,65	368,00
-9795,33	280,00
-9772,06	334,00
-9748,84	250,00
-9725,67	286,00
-9702,55	282,00
-9679,47	314,00
-9656,45	266,00
-9633,47	208,00
-9610,55	290,00
-9587,67	455,00
-9564,84	398,00
-9542,06	437,00
-9519,32	340,00
-9496,64	529,00
-9474,00	558,00
-9451,41	405,00
-9428,87	510,00
-9406,37	528,00
-9383,92	354,00
-9361,52	485,00
-9339,17	499,00
-9316,86	590,00
-9294,60	578,00
-9272,38	782,00
-9250,21	771,00
-9228,09	823,00
-9206,01	733,00
-9183,98	663,00
-9162,00	610,00
-9140,06	479,00
-9118,16	565,00
-9096,31	605,00
-9074,51	599,00
-9052,75	708,00
-9031,04	706,00
-9009,37	563,00
-8987,74	452,00
-8966,16	441,00
-8944,63	478,00
-8923,14	351,00
-8901,69	450,00
-8880,29	429,00
-8858,93	617,00
-8837,61	661,00
-8816,34	601,00
-8795,11	736,00
-8773,92	493,00
-8752,78	487,00
-8731,68	525,00
-8710,62	607,00
-8689,61	556,00
-8668,63	550,00
-8647,70	662,00
-8626,82	602,00
-8605,97	566,00
-8585,17	636,00
-8564,41	466,00
-8543,69	499,00
-8523,01	446,00
-8502,37	452,00
-8481,78	469,00
-8461,23	511,00
-8440,71	526,00
-8420,24	639,00
-8399,81	655,00
-8379,42	678,00
-8359,08	536,00
-8338,77	544,00
-8318,50	657,00
-8298,27	577,00
-8278,09	478,00
-8257,94	536,00
-8237,83	657,00
-8217,76	657,00
-8197,74	667,00
-8177,75	633,00
-8157,80	570,00
-8137,89	540,00
-8118,02	532,00
-8098,19	613,00
-8078,40	622,00
-8058,65	572,00
-8038,93	586,00
-8019,26	536,00
-7999,62	591,00
-7980,02	553,00
-7960,46	541,00
-7940,94	433,00
-7921,46	411,00
-7902,01	535,00
-7882,60	364,00
-7863,23	415,00
-7843,90	493,00
-7824,61	410,00
-7805,35	567,00
-7786,13	426,00
-7766,95	500,00
-7747,80	496,00
-7728,69	327,00
-7709,62	559,00
-7690,59	471,00
-7671,59	589,00
-7652,63	576,00
-7633,70	528,00
-7614,81	593,00
-7595,96	466,00
-7577,15	367,00
-7558,37	497,00
-7539,62	491,00
-7520,91	445,00
-7502,24	570,00
-7483,60	506,00
-7465,00	598,00
-7446,44	402,00
-7427,91	468,00
-7409,41	286,00
-7390,95	446,00
-7372,53	334,00
-7354,14	271,00
-7335,78	243,00
-7317,46	274,00
-7299,18	444,00
-7280,92	464,00
-7262,71	498,00
-7244,52	414,00
-7226,38	458,00
-7208,26	533,00
-7190,18	501,00
-7172,14	373,00
-7154,12	404,00
-7136,15	535,00
-7118,20	498,00
-7100,29	631,00
-7082,41	517,00
-7064,57	485,00
-7046,76	429,00
-7028,98	378,00
-7011,24	230,00
-6993,53	483,00
-6975,85	350,00
-6958,20	195,00
-6940,59	170,00
-6923,01	339,00
-6905,46	307,00
-6887,94	401,00
-6870,46	2972,00
-6853,01	534,00
-6835,59	519,00
-6818,21	359,00
-6800,85	410,00
-6783,53	301,00
-6766,24	229,00
-6748,98	155,00
-6731,76	249,00
-6714,56	242,00
-6697,40	271,00
-6680,26	249,00
-6663,16	255,00
-6646,09	289,00
-6629,05	213,00
-6612,05	406,00
-6595,07	426,00
-6578,13	410,00
-6561,21	305,00
-6544,33	287,00
-6527,47	164,00
-6510,65	253,00
-6493,86	196,00
-6477,10	76,00
-6460,36	260,00
-6443,66	287,00
-6426,99	191,00
-6410,35	134,00
-6393,74	197,00
-6377,16	306,00
-6360,61	297,00
-6344,09	382,00
-6327,59	230,00
-6311,13	351,00
-6294,70	325,00
-6278,29	284,00
-6261,92	397,00
-6245,58	298,00
-6229,26	380,00
-6212,97	263,00
-6196,72	394,00
-6180,49	216,00
-6164,29	82,00
-6148,12	256,00
-6131,98	119,00
-6115,86	259,00
-6099,78	118,00
-6083,72	62,00
-6067,69	55,00
-6051,69	192,00
-6035,72	215,00
-6019,78	236,00
-6003,87	219,00
-5987,98	241,00
-5972,12	403,00
-5956,29	323,00
-5940,49	230,00
-5924,71	244,00
-5908,96	68,00
-5893,24	163,00
-5877,55	165,00
-5861,89	163,00
-5846,25	173,00
-5830,64	202,00
-5815,05	58,00
-5799,50	194,00
-5783,97	290,00
-5768,47	246,00
-5752,99	330,00
-5737,55	224,00
-5722,12	333,00
-5706,73	417,00
-5691,36	221,00
-5676,02	171,00
-5660,71	158,00
-5645,42	184,00
-5630,16	157,00
-5614,92	157,00
-5599,71	250,00
-5584,53	116,00
-5569,37	187,00
-5554,24	1018,00
-5539,14	248,00
-5524,06	241,00
-5509,01	168,00
-5493,98	254,00
-5478,98	221,00
-5464,00	160,00
-5449,05	347,00
-5434,13	130,00
-5419,23	201,00
-5404,36	170,00
-5389,51	81,00
-5374,69	186,00
-5359,89	284,00
-5345,12	371,00
-5330,37	301,00
-5315,65	368,00
-5300,95	190,00
-5286,28	157,00
-5271,63	100,00
-5257,01	188,00
-5242,41	207,00
-5227,84	94,00
-5213,29	229,00
-5198,76	154,00
-5184,26	179,00
-5169,79	153,00
-5155,33	169,00
-5140,91	142,00
-5126,51	262,00
-5112,13	227,00
-5097,77	134,00
-5083,44	80,00
-5069,13	134,00
-5054,85	178,00
-5040,59	164,00
-5026,36	190,00
-5012,15	122,00
-4997,96	277,00
-4983,80	254,00
-4969,66	272,00
-4955,54	151,00
-4941,44	267,00
-4927,37	300,00
-4913,33	349,00
-4899,30	419,00
-4885,30	369,00
-4871,33	186,00
-4857,37	243,00
-4843,44	158,00
-4829,53	93,00
-4815,65	315,00
-4801,79	201,00
-4787,95	200,00
-4774,13	106,00
-4760,34	179,00
-4746,56	84,00
-4732,82	111,00
-4719,09	211,00
-4705,38	355,00
-4691,70	350,00
-4678,04	353,00
-4664,41	194,00
-4650,79	286,00
-4637,20	220,00
-4623,63	200,00
-4610,08	245,00
-4596,56	220,00
-4583,05	281,00
-4569,57	264,00
-4556,11	118,00
-4542,67	183,00
-4529,25	225,00
-4515,86	209,00
-4502,49	245,00
-4489,13	262,00
-4475,80	232,00
-4462,49	191,00
-4449,21	336,00
-4435,94	184,00
-4422,70	178,00
-4409,47	219,00
-4396,27	238,00
-4383,09	154,00
-4369,93	164,00
-4356,79	132,00
-4343,67	262,00
-4330,58	127,00
-4317,50	244,00
-4304,45	232,00
-4291,41	154,00
-4278,40	171,00
-4265,41	193,00
-4252,44	226,00
-4239,49	133,00
-4226,55	296,00
-4213,65	332,00
-4200,76	208,00
-4187,89	256,00
-4175,04	243,00
-4162,21	121,00
-4149,40	158,00
-4136,61	73,00
-4123,85	179,00
-4111,10	133,00
-4098,37	130,00
-4085,66	193,00
-4072,98	250,00
-4060,31	105,00
-4047,66	79,00
-4035,04	177,00
-4022,43	161,00
-4009,84	208,00
-3997,27	171,00
-3984,72	217,00
-3972,19	141,00
-3959,69	78,00
-3947,20	247,00
-3934,73	196,00
-3922,27	125,00
-3909,84	128,00
-3897,43	195,00
-3885,04	244,00
-3872,67	128,00
-3860,31	150,00
-3847,98	173,00
-3835,66	288,00
-3823,36	90,00
-3811,09	117,00
-3798,83	218,00
-3786,59	149,00
-3774,37	105,00
-3762,17	248,00
-3749,98	94,00
-3737,82	153,00
-3725,67	137,00
-3713,55	205,00
-3701,44	161,00
-3689,35	141,00
-3677,28	147,00
-3665,22	229,00
-3653,19	113,00
-3641,17	200,00
-3629,18	171,00
-3617,20	160,00
-3605,24	228,00
-3593,30	193,00
-3581,37	117,00
-3569,47	116,00
-3557,58	42,00
-3545,71	54,00
-3533,86	221,00
-3522,02	167,00
-3510,21	105,00
-3498,41	95,00
-3486,63	125,00
-3474,87	190,00
-3463,12	158,00
-3451,40	121,00
-3439,69	172,00
-3428,00	168,00
-3416,33	229,00
-3404,67	169,00
-3393,03	101,00
-3381,41	170,00
-3369,81	107,00
-3358,22	76,00
-3346,66	154,00
-3335,10	256,00
-3323,57	219,00
-3312,06	228,00
-3300,56	138,00
-3289,08	170,00
-3277,61	86,00
-3266,16	25,00
-3254,73	206,00
-3243,32	138,00
-3231,92	77,00
-3220,55	221,00
-3209,18	193,00
-3197,84	197,00
-3186,51	65,00
-3175,20	44,00
-3163,90	118,00
-3152,63	52,00
-3141,36	221,00
-3130,12	138,00
-3118,89	148,00
-3107,68	213,00
-3096,49	168,00
-3085,31	210,00
-3074,15	61,00
-3063,00	282,00
-3051,87	295,00
-3040,76	184,00
-3029,67	223,00
-3018,59	179,00
-3007,52	219,00
-2996,48	43,00
-2985,44	67,00
-2974,43	232,00
-2963,43	196,00
-2952,45	129,00
-2941,48	186,00
-2930,53	157,00
-2919,60	222,00
-2908,68	111,00
-2897,78	75,00
-2886,89	87,00
-2876,02	64,00
-2865,17	95,00
-2854,33	151,00
-2843,50	144,00
-2832,70	148,00
-2821,90	206,00
-2811,13	104,00
-2800,37	143,00
-2789,62	177,00
-2778,89	272,00
-2768,18	178,00
-2757,48	219,00
-2746,80	101,00
-2736,13	173,00
-2725,48	175,00
-2714,84	-77,00
-2704,22	-1,00
-2693,61	254,00
-2683,02	111,00
-2672,45	161,00
-2661,89	107,00
-2651,34	169,00
-2640,81	181,00
-2630,30	120,00
-2619,80	87,00
-2609,31	143,00
-2598,84	151,00
-2588,39	174,00
-2577,95	165,00
-2567,52	111,00
-2557,11	48,00
-2546,71	60,00
-2536,33	221,00
-2525,97	82,00
-2515,62	143,00
-2505,28	203,00
-2494,96	91,00
-2484,65	95,00
-2474,36	225,00
-2464,08	180,00
-2453,82	156,00
-2443,57	79,00
-2433,33	189,00
-2423,11	36,00
-2412,91	137,00
-2402,72	154,00
-2392,54	31,00
-2382,38	206,00
-2372,23	126,00
-2362,09	-32,00
-2351,97	128,00
-2341,87	161,00
-2331,78	183,00
-2321,70	207,00
-2311,64	138,00
-2301,59	281,00
-2291,55	119,00
-2281,53	149,00
-2271,53	172,00
-2261,53	46,00
-2251,55	270,00
-2241,59	146,00
-2231,64	213,00
-2221,70	85,00
-2211,78	135,00
-2201,87	194,00
-2191,97	99,00
-2182,09	123,00
-2172,22	185,00
-2162,37	102,00
-2152,53	116,00
-2142,70	107,00
-2132,89	188,00
-2123,09	73,00
-2113,30	225,00
-2103,53	79,00
-2093,77	112,00
-2084,02	155,00
-2074,29	150,00
-2064,57	128,00
-2054,86	139,00
-2045,17	114,00
-2035,49	158,00
-2025,82	133,00
-2016,17	86,00
-2006,53	119,00
-1996,91	176,00
-1987,29	111,00
-1977,69	263,00
-1968,11	178,00
-1958,53	144,00
-1948,97	164,00
-1939,42	68,00
-1929,89	99,00
-1920,37	150,00
-1910,86	217,00
-1901,36	76,00
-1891,88	243,00
-1882,41	152,00
-1872,95	97,00
-1863,51	243,00
-1854,08	156,00
-1844,66	151,00
-1835,26	237,00
-1825,86	89,00
-1816,48	185,00
-1807,11	77,00
-1797,76	59,00
-1788,42	276,00
-1779,09	109,00
-1769,77	213,00
-1760,47	108,00
-1751,17	196,00
-1741,89	201,00
-1732,63	201,00
-1723,37	272,00
-1714,13	108,00
-1704,90	128,00
-1695,68	321,00
-1686,48	84,00
-1677,29	176,00
-1668,11	212,00
-1658,94	199,00
-1649,78	89,00
-1640,64	121,00
-1631,51	250,00
-1622,39	-38,00
-1613,28	233,00
-1604,19	118,00
-1595,10	270,00
-1586,03	106,00
-1576,97	207,00
-1567,93	143,00
-1558,89	167,00
-1549,87	148,00
-1540,86	92,00
-1531,86	195,00
-1522,87	100,00
-1513,90	104,00
-1504,93	105,00
-1495,98	144,00
-1487,04	140,00
-1478,12	255,00
-1469,20	146,00
-1460,30	167,00
-1451,40	110,00
-1442,52	178,00
-1433,65	217,00
-1424,80	213,00
-1415,95	174,00
-1407,12	333,00
-1398,30	93,00
-1389,48	48,00
-1380,69	113,00
-1371,90	94,00
-1363,12	35,00
-1354,36	277,00
-1345,60	162,00
-1336,86	108,00
-1328,13	259,00
-1319,41	166,00
-1310,70	121,00
-1302,01	70,00
-1293,32	114,00
-1284,65	96,00
-1275,99	173,00
-1267,33	206,00
-1258,69	199,00
-1250,06	255,00
-1241,45	100,00
-1232,84	205,00
-1224,25	138,00
-1215,66	158,00
-1207,09	150,00
-1198,53	235,00
-1189,97	142,00
-1181,43	173,00
-1172,91	129,00
-1164,39	203,00
-1155,88	112,00
-1147,38	184,00
-1138,90	136,00
-1130,43	145,00
-1121,96	237,00
-1113,51	158,00
-1105,07	257,00
-1096,64	221,00
-1088,22	195,00
-1079,81	214,00
-1071,41	188,00
-1063,02	246,00
-1054,65	136,00
-1046,28	149,00
-1037,92	99,00
-1029,58	6,00
-1021,24	135,00
-1012,92	219,00
-1004,61	196,00
-996,30	282,00
-988,01	177,00
-979,73	158,00
-971,46	182,00
-963,20	82,00
-954,95	189,00
-946,71	170,00
-938,48	130,00
-930,26	216,00
-922,06	184,00
-913,86	113,00
-905,67	179,00
-897,49	211,00
-889,33	169,00
-881,17	160,00
-873,02	228,00
-864,89	-27,00
-856,76	101,00
-848,65	301,00
-840,54	235,00
-832,45	277,00
-824,36	175,00
-816,29	250,00
-808,22	11,00
-800,17	171,00
-792,12	239,00
-784,09	227,00
-776,06	111,00
-768,05	171,00
-760,04	264,00
-752,05	224,00
-744,07	86,00
-736,09	67,00
-728,13	329,00
-720,17	167,00
-712,23	84,00
-704,29	227,00
-696,37	231,00
-688,45	161,00
-680,55	190,00
-672,65	178,00
-664,77	174,00
-656,89	116,00
-649,03	93,00
-641,17	135,00
-633,32	188,00
-625,49	151,00
-617,66	169,00
-609,84	148,00
-602,03	176,00
-594,23	223,00
-586,45	164,00
-578,67	230,00
-570,90	228,00
-563,14	159,00
-555,39	88,00
-547,65	214,00
-539,91	39,00
-532,19	288,00
-524,48	204,00
-516,78	48,00
-509,08	199,00
-501,40	137,00
-493,72	187,00
-486,06	181,00
-478,40	222,00
-470,76	276,00
-463,12	79,00
-455,49	202,00
-447,87	244,00
-440,26	105,00
-432,66	211,00
-425,07	246,00
-417,49	121,00
-409,92	164,00
-402,35	188,00
-394,80	155,00
-387,25	209,00
-379,72	251,00
-372,19	244,00
-364,67	345,00
-357,17	213,00
-349,67	218,00
-342,18	327,00
-334,69	271,00
-327,22	284,00
-319,76	288,00
-312,30	222,00
-304,86	231,00
-297,42	238,00
-290,00	336,00
-282,58	273,00
-275,17	247,00
-267,77	329,00
-260,37	342,00
-252,99	203,00
-245,62	382,00
-238,25	225,00
-230,90	369,00
-223,55	343,00
-216,21	426,00
-208,88	455,00
-201,56	536,00
-194,25	495,00
-186,94	605,00
-179,65	602,00
-172,36	660,00
-165,08	823,00
-157,81	839,00
-150,55	771,00
-143,30	1032,00
-136,06	903,00
-128,82	1256,00
-121,60	1294,00
-114,38	1403,00
-107,17	1529,00
-99,97	1658,00
-92,78	1888,00
-85,60	2130,00
-78,42	2618,00
-71,25	2906,00
-64,10	3259,00
-56,95	3991,00
-49,81	4700,00
-42,67	5756,00
-35,55	7207,00
-28,43	9433,00
-21,33	15274,00
-14,23	47480,00
-7,14	56043,00
-0,05	55763,00
7,02	55513,00
14,09	55717,00
21,14	46235,00
28,19	20519,00
35,23	12787,00
42,27	9357,00
49,29	7705,00
56,31	6433,00
63,32	5351,00
70,32	4391,00
77,31	3826,00
84,29	3323,00
91,27	2806,00
98,23	2642,00
105,19	2388,00
112,14	2113,00
119,09	2447,00
126,02	2953,00
132,95	3186,00
139,87	3176,00
146,78	3097,00
153,68	2933,00
160,58	2704,00
167,46	2739,00
174,34	2597,00
181,21	2598,00
188,08	2648,00
194,93	2339,00
201,78	2514,00
208,62	2425,00
215,45	2383,00
222,27	2411,00
229,09	2404,00
235,90	2376,00
242,70	2280,00
249,49	2411,00
256,27	2288,00
263,05	2255,00
269,82	2167,00
276,58	2196,00
283,33	2080,00
290,08	2148,00
296,82	2034,00
303,55	2049,00
310,27	2082,00
316,98	1974,00
323,69	1908,00
330,39	2057,00
337,08	1947,00
343,76	1959,00
350,44	1916,00
357,11	1852,00
363,77	1908,00
370,42	1845,00
377,07	1806,00
383,71	1964,00
390,34	1873,00
396,96	1865,00
403,58	1878,00
410,19	1943,00
416,79	2067,00
423,38	2061,00
429,97	1989,00
436,55	1763,00
443,12	1704,00
449,68	1611,00
456,24	1644,00
462,79	1638,00
469,33	1579,00
475,86	1585,00
482,39	1679,00
488,91	1663,00
495,42	1500,00
501,93	1517,00
508,42	1462,00
514,91	1625,00
521,40	1514,00
527,87	1492,00
534,34	1441,00
540,80	1477,00
547,25	1464,00
553,70	1583,00
560,14	1343,00
566,57	1553,00
573,00	1431,00
579,41	1526,00
585,83	1506,00
592,23	1486,00
598,62	1311,00
605,01	1376,00
611,40	1409,00
617,77	1434,00
624,14	1313,00
630,50	1432,00
636,85	1406,00
643,20	1369,00
649,54	1416,00
655,87	1382,00
662,20	1304,00
668,52	1362,00
674,83	1436,00
681,13	1378,00
687,43	1328,00
693,72	1283,00
700,00	1384,00
706,28	1354,00
712,55	1361,00
718,81	1388,00
725,07	1242,00
731,32	1359,00
737,56	1312,00
743,79	1442,00
750,02	1342,00
756,24	1363,00
762,46	1292,00
768,67	1260,00
774,87	1275,00
781,06	1418,00
787,25	1238,00
793,43	1309,00
799,60	1277,00
805,77	1355,00
811,93	1277,00
818,08	1308,00
824,23	1365,00
830,37	1322,00
836,50	1275,00
842,63	1486,00
848,75	1397,00
854,87	1283,00
860,97	1357,00
867,07	1314,00
873,17	1354,00
879,25	1311,00
885,33	1289,00
891,41	1384,00
897,47	1277,00
903,53	1271,00
909,59	1153,00
915,63	1349,00
921,67	1289,00
927,71	1287,00
933,74	1280,00
939,76	1165,00
945,77	1176,00
951,78	1153,00
957,78	1137,00
963,78	1239,00
969,77	1157,00
975,75	1216,00
981,72	1190,00
987,69	1463,00
993,66	1198,00
999,61	1260,00
1005,56	1112,00
1011,51	1229,00
1017,44	1174,00
1023,37	1251,00
1029,30	1139,00
1035,22	1257,00
1041,13	1088,00
1047,03	1249,00
1052,93	1375,00
1058,83	1604,00
1064,71	1650,00
1070,59	1457,00
1076,47	1437,00
1082,33	1130,00
1088,20	1309,00
1094,05	1170,00
1099,90	1182,00
1105,74	1127,00
1111,58	1188,00
1117,41	1253,00
1123,23	1384,00
1129,05	1556,00
1134,86	1391,00
1140,67	1244,00
1146,47	1089,00
1152,26	1100,00
1158,05	1088,00
1163,83	1123,00
1169,60	1103,00
1175,37	1104,00
1181,13	1050,00
1186,89	1079,00
1192,64	1035,00
1198,38	1125,00
1204,12	1156,00
1209,85	1035,00
1215,58	945,00
1221,30	1084,00
1227,02	1115,00
1232,72	1177,00
1238,43	1126,00
1244,12	1015,00
1249,81	1068,00
1255,50	1123,00
1261,17	1083,00
1266,85	1221,00
1272,51	1218,00
1278,17	1023,00
1283,83	1394,00
1289,47	1528,00
1295,12	1850,00
1300,75	1864,00
1306,38	1643,00
1312,01	1462,00
1317,63	1302,00
1323,24	1353,00
1328,85	1348,00
1334,45	1273,00
1340,04	1229,00
1345,63	1218,00
1351,22	1219,00
1356,80	1286,00
1362,37	1385,00
1367,93	1461,00
1373,49	1310,00
1379,05	1450,00
1384,60	1270,00
1390,14	1259,00
1395,68	1234,00
1401,21	1379,00
1406,74	1425,00
1412,26	1367,00
1417,77	1495,00
1423,28	1628,00
1428,78	1659,00
1434,28	1964,00
1439,77	2124,00
1445,26	2054,00
1450,74	2029,00
1456,22	1795,00
1461,68	1851,00
1467,15	1670,00
1472,61	1570,00
1478,06	1361,00
1483,51	1319,00
1488,95	1227,00
1494,38	1263,00
1499,81	1109,00
1505,24	1300,00
1510,65	1171,00
1516,07	1023,00
1521,48	1064,00
1526,88	1148,00
1532,27	1026,00
1537,67	1012,00
1543,05	1207,00
1548,43	1034,00
1553,81	1033,00
1559,18	924,00
1564,54	1082,00
1569,90	1108,00
1575,25	1034,00
1580,60	1024,00
1585,94	1069,00
1591,28	1015,00
1596,61	1050,00
1601,93	1015,00
1607,25	983,00
1612,57	998,00
1617,88	1019,00
1623,18	1124,00
1628,48	1044,00
1633,77	983,00
1639,06	1092,00
1644,34	894,00
1649,62	952,00
1654,89	976,00
1660,16	785,00
1665,42	992,00
1670,67	956,00
1675,92	1030,00
1681,17	956,00
1686,41	930,00
1691,64	916,00
1696,87	909,00
1702,10	867,00
1707,32	944,00
1712,53	886,00
1717,74	784,00
1722,94	891,00
1728,14	815,00
1733,33	717,00
1738,52	866,00
1743,70	924,00
1748,88	869,00
1754,05	785,00
1759,22	844,00
1764,38	857,00
1769,53	812,00
1774,69	759,00
1779,83	869,00
1784,97	888,00
1790,11	797,00
1795,24	769,00
1800,36	773,00
1805,48	930,00
1810,60	857,00
1815,71	822,00
1820,82	717,00
1825,92	700,00
1831,01	700,00
1836,10	868,00
1841,19	776,00
1846,26	637,00
1851,34	728,00
1856,41	862,00
1861,47	678,00
1866,53	640,00
1871,59	695,00
1876,64	763,00
1881,68	700,00
1886,72	745,00
1891,76	755,00
1896,79	723,00
1901,81	731,00
1906,83	674,00
1911,85	648,00
1916,86	722,00
1921,86	703,00
1926,86	763,00
1931,86	568,00
1936,85	604,00
1941,83	699,00
1946,81	607,00
1951,79	672,00
1956,76	744,00
1961,72	627,00
1966,68	649,00
1971,64	641,00
1976,59	621,00
1981,54	493,00
1986,48	644,00
1991,42	664,00
1996,35	679,00
2001,27	596,00
2006,20	622,00
2011,11	629,00
2016,03	674,00
2020,93	642,00
2025,84	588,00
2030,73	657,00
2035,63	625,00
2040,52	595,00
2045,40	503,00
2050,28	551,00
2055,15	552,00
2060,02	466,00
2064,89	638,00
2069,75	518,00
2074,60	602,00
2079,46	479,00
2084,30	571,00
2089,14	428,00
2093,98	476,00
2098,81	522,00
2103,64	608,00
2108,46	607,00
2113,28	633,00
2118,09	565,00
2122,90	566,00
2127,70	559,00
2132,50	646,00
2137,30	431,00
2142,09	440,00
2146,87	555,00
2151,66	559,00
2156,43	434,00
2161,20	698,00
2165,97	603,00
2170,73	574,00
2175,49	458,00
2180,24	557,00
2184,99	602,00
2189,74	485,00
2194,48	537,00
2199,21	608,00
2203,94	476,00
2208,67	546,00
2213,39	487,00
2218,11	570,00
2222,82	585,00
2227,53	569,00
2232,23	536,00
2236,93	631,00
2241,63	482,00
2246,32	582,00
2251,00	428,00
2255,68	533,00
2260,36	552,00
2265,03	464,00
2269,70	429,00
2274,36	543,00
2279,02	519,00
2283,68	321,00
2288,33	485,00
2292,97	576,00
2297,61	579,00
2302,25	351,00
2306,88	492,00
2311,51	387,00
2316,14	477,00
2320,75	390,00
2325,37	456,00
2329,98	400,00
2334,59	468,00
2339,19	350,00
2343,79	376,00
2348,38	516,00
2352,97	384,00
2357,55	503,00
2362,13	435,00
2366,71	440,00
2371,28	659,00
2375,85	396,00
2380,41	515,00
2384,97	523,00
2389,52	503,00
2394,07	410,00
2398,62	407,00
2403,16	372,00
2407,70	357,00
2412,23	434,00
2416,76	417,00
2421,29	388,00
2425,81	414,00
2430,32	538,00
2434,84	403,00
2439,34	379,00
2443,85	396,00
2448,35	478,00
2452,84	423,00
2457,33	430,00
2461,82	393,00
2466,30	452,00
2470,78	312,00
2475,25	423,00
2479,72	344,00
2484,19	388,00
2488,65	380,00
2493,11	361,00
2497,56	417,00
2502,01	443,00
2506,46	347,00
2510,90	420,00
2515,34	377,00
2519,77	401,00
2524,20	344,00
2528,62	401,00
2533,04	348,00
2537,46	366,00
2541,87	313,00
2546,28	362,00
2550,68	368,00
2555,08	416,00
2559,48	493,00
2563,87	470,00
2568,26	356,00
2572,64	315,00
2577,02	476,00
2581,40	429,00
2585,77	232,00
2590,14	402,00
2594,50	357,00
2598,86	376,00
2603,22	340,00
2607,57	304,00
2611,92	345,00
2616,26	321,00
2620,60	377,00
2624,94	352,00
2629,27	335,00
2633,60	384,00
2637,92	439,00
2642,24	326,00
2646,56	333,00
2650,87	358,00
2655,18	426,00
2659,48	313,00
2663,78	380,00
2668,08	360,00
2672,37	324,00
2676,66	389,00
2680,95	501,00
2685,23	316,00
2689,50	376,00
2693,78	335,00
2698,05	413,00
2702,31	396,00
2706,57	289,00
2710,83	396,00
2715,08	539,00
2719,33	506,00
2723,58	473,00
2727,82	402,00
2732,06	497,00
2736,29	384,00
2740,53	436,00
2744,75	464,00
2748,97	492,00
2753,19	470,00
2757,41	459,00
2761,62	526,00
2765,83	416,00
2770,03	307,00
2774,23	305,00
2778,43	331,00
2782,62	458,00
2786,81	288,00
2791,00	449,00
2795,18	516,00
2799,35	417,00
2803,53	594,00
2807,70	504,00
2811,86	428,00
2816,03	447,00
2820,19	528,00
2824,34	516,00
2828,49	644,00
2832,64	633,00
2836,78	844,00
2840,92	928,00
2845,06	1123,00
2849,19	1312,00
2853,32	1463,00
2857,45	1291,00
2861,57	1325,00
2865,69	1203,00
2869,80	1228,00
2873,91	1176,00
2878,02	1330,00
2882,12	1431,00
2886,22	1513,00
2890,32	1378,00
2894,41	1283,00
2898,50	1152,00
2902,58	1189,00
2906,67	1207,00
2910,74	1195,00
2914,82	887,00
2918,89	821,00
2922,96	935,00
2927,02	881,00
2931,08	817,00
2935,13	730,00
2939,19	717,00
2943,24	722,00
2947,28	757,00
2951,32	475,00
2955,36	549,00
2959,40	398,00
2963,43	539,00
2967,46	360,00
2971,48	395,00
2975,50	479,00
2979,52	417,00
2983,53	431,00
2987,54	283,00
2991,55	275,00
2995,55	274,00
2999,55	303,00
3003,54	261,00
3007,54	239,00
3011,53	263,00
3015,51	364,00
3019,49	427,00
3023,47	204,00
3027,45	372,00
3031,42	359,00
3035,39	239,00
3039,35	276,00
3043,31	195,00
3047,27	240,00
3051,22	317,00
3055,17	300,00
3059,12	345,00
3063,06	241,00
3067,00	364,00
3070,94	244,00
3074,87	164,00
3078,80	196,00
3082,73	284,00
3086,65	253,00
3090,57	181,00
3094,49	314,00
3098,40	222,00
3102,31	206,00
3106,22	220,00
3110,12	266,00
3114,02	181,00
3117,92	171,00
3121,81	255,00
3125,70	255,00
3129,58	271,00
3133,47	170,00
3137,34	256,00
3141,22	275,00
3145,09	320,00
3148,96	137,00
3152,83	336,00
3156,69	236,00
3160,55	196,00
3164,40	221,00
3168,26	318,00
3172,10	250,00
3175,95	327,00
3179,79	283,00
3183,63	302,00
3187,47	354,00
3191,30	179,00
3195,13	154,00
3198,95	191,00
3202,78	275,00
3206,60	181,00
3210,41	169,00
3214,23	222,00
3218,03	267,00
3221,84	195,00
3225,64	286,00
3229,44	168,00
3233,24	153,00
3237,03	196,00
3240,82	218,00
3244,61	230,00
3248,39	246,00
3252,17	267,00
3255,95	141,00
3259,72	194,00
3263,49	225,00
3267,26	187,00
3271,03	232,00
3274,79	192,00
3278,54	244,00
3282,30	201,00
3286,05	247,00
3289,80	230,00
3293,54	303,00
3297,29	153,00
3301,02	261,00
3304,76	241,00
3308,49	223,00
3312,22	342,00
3315,95	249,00
3319,67	184,00
3323,39	204,00
3327,10	236,00
3330,82	260,00
3334,53	249,00
3338,24	149,00
3341,94	240,00
3345,64	224,00
3349,34	266,00
3353,03	224,00
3356,72	255,00
3360,41	240,00
3364,10	182,00
3367,78	171,00
3371,46	291,00
3375,13	276,00
3378,81	318,00
3382,48	198,00
3386,14	158,00
3389,81	219,00
3393,47	143,00
3397,12	177,00
3400,78	179,00
3404,43	282,00
3408,08	182,00
3411,72	145,00
3415,36	243,00
3419,00	163,00
3422,64	288,00
3426,27	218,00
3429,90	215,00
3433,53	229,00
3437,15	111,00
3440,77	131,00
3444,39	193,00
3448,00	288,00
3451,62	96,00
3455,22	226,00
3458,83	137,00
3462,43	168,00
3466,03	230,00
3469,63	245,00
3473,22	146,00
3476,81	162,00
3480,40	176,00
3483,99	166,00
3487,57	293,00
3491,15	150,00
3494,72	131,00
3498,29	286,00
3501,86	148,00
3505,43	201,00
3508,99	141,00
3512,56	213,00
3516,11	88,00
3519,67	192,00
3523,22	148,00
3526,77	156,00
3530,32	97,00
3533,86	201,00
3537,40	111,00
3540,94	168,00
3544,47	110,00
3548,00	197,00
3551,53	215,00
3555,06	53,00
3558,58	147,00
3562,10	123,00
3565,62	160,00
3569,13	92,00
3572,64	191,00
3576,15	154,00
3579,66	152,00
3583,16	183,00
3586,66	141,00
3590,16	77,00
3593,65	82,00
3597,14	150,00
3600,63	72,00
3604,11	168,00
3607,60	138,00
3611,08	93,00
3614,55	257,00
3618,03	57,00
3621,50	74,00
3624,97	73,00
3628,43	138,00
3631,90	230,00
3635,36	349,00
3638,81	104,00
3642,27	202,00
3645,72	220,00
3649,17	140,00
3652,61	82,00
3656,06	75,00
3659,50	118,00
3662,93	108,00
3666,37	227,00
3669,80	170,00
3673,23	187,00
3676,65	158,00
3680,08	78,00
3683,50	145,00
3686,92	133,00
3690,33	121,00
3693,74	138,00
3697,15	144,00
3700,56	125,00
3703,96	217,00
3707,36	58,00
3710,76	110,00
3714,16	199,00
3717,55	244,00
3720,94	218,00
3724,33	129,00
3727,71	-4,00
3731,10	46,00
3734,48	211,00
3737,85	98,00
3741,23	86,00
3744,60	141,00
3747,97	157,00
3751,33	171,00
3754,69	88,00
3758,05	55,00
3761,41	112,00
3764,77	233,00
3768,12	47,00
3771,47	153,00
3774,82	159,00
3778,16	-2,00
3781,50	-1,00
3784,84	6,00
3788,18	3,00
>>>>>End Processed Spectral Data<<<<<
