SpectraSuite Data File
++++++++++++++++++++++++++++++++++++
Date: Wed Feb 11 16:44:44 ICT 2026
User: Administrator
Dark Spectrum Present: Yes
Reference Spectrum Present: No
Number of Sampled Component Spectra: 1
Spectrometers: MAYP113682
Integration Time (usec): 3000000 (MAYP113682)
Spectra Averaged: 1 (MAYP113682)
Boxcar Smoothing: 0 (MAYP113682)
Correct for Electrical Dark: No (MAYP113682)
Strobe/Lamp Enabled: No (MAYP113682)
Correct for Detector Non-linearity: No (MAYP113682)
Correct for Stray Light: No (MAYP113682)
Number of Pixels in Processed Spectrum: 2068
>>>>>Begin Processed Spectral Data<<<<<
-37534,58	4,00
-37414,56	2,00
-37295,11	-6,00
-37176,24	4,00
-37057,95	-2,00
-36940,22	-25,00
-36823,05	-74,00
-36706,45	-107,00
-36590,40	9,00
-36474,90	-56,00
-36359,95	-134,00
-36245,55	-103,00
-36131,68	-152,00
-36018,35	-75,00
-35905,55	27,00
-35793,29	-3,00
-35681,54	-95,00
-35570,32	-63,00
-35459,62	-47,00
-35349,43	16,00
-35239,75	-86,00
-35130,58	-80,00
-35021,91	-106,00
-34913,74	-147,00
-34806,07	-150,00
-34698,89	-68,00
-34592,20	-83,00
-34486,00	-62,00
-34380,28	4,00
-34275,04	-174,00
-34170,27	-123,00
-34065,98	-130,00
-33962,16	-78,00
-33858,81	22,00
-33755,92	-13,00
-33653,49	-183,00
-33551,52	-55,00
-33450,01	-141,00
-33348,94	-123,00
-33248,33	-137,00
-33148,16	29,00
-33048,43	-82,00
-32949,14	-189,00
-32850,29	-24,00
-32751,87	-69,00
-32653,89	-8,00
-32556,33	-121,00
-32459,20	-44,00
-32362,49	-4,00
-32266,19	-41,00
-32170,32	-94,00
-32074,86	24,00
-31979,82	-103,00
-31885,18	-9,00
-31790,95	-96,00
-31697,12	-58,00
-31603,69	-46,00
-31510,67	-84,00
-31418,04	-30,00
-31325,80	16,00
-31233,95	5,00
-31142,49	-111,00
-31051,42	-96,00
-30960,73	-37,00
-30870,43	9,00
-30780,50	-41,00
-30690,95	-30,00
-30601,77	-1,00
-30512,97	-107,00
-30424,53	-11,00
-30336,46	-192,00
-30248,76	-47,00
-30161,42	-117,00
-30074,44	-90,00
-29987,81	-119,00
-29901,55	-43,00
-29815,63	-21,00
-29730,07	-127,00
-29644,86	23,00
-29560,00	-110,00
-29475,48	-58,00
-29391,30	-57,00
-29307,47	-170,00
-29223,97	5,00
-29140,81	-105,00
-29057,99	-59,00
-28975,50	16,00
-28893,34	-126,00
-28811,51	-93,00
-28730,00	41,00
-28648,82	52,00
-28567,97	-37,00
-28487,43	-105,00
-28407,21	-144,00
-28327,32	-150,00
-28247,73	-148,00
-28168,46	28,00
-28089,50	-21,00
-28010,85	-201,00
-27932,51	-7,00
-27854,48	31,00
-27776,75	-82,00
-27699,32	-71,00
-27622,19	-33,00
-27545,37	-156,00
-27468,84	-62,00
-27392,60	-24,00
-27316,66	-80,00
-27241,01	-91,00
-27165,66	11,00
-27090,59	-120,00
-27015,81	-95,00
-26941,31	29,00
-26867,10	-36,00
-26793,17	29,00
-26719,52	-25,00
-26646,15	-172,00
-26573,06	-102,00
-26500,24	-98,00
-26427,70	-43,00
-26355,43	-50,00
-26283,43	-37,00
-26211,71	-84,00
-26140,25	88,00
-26069,06	30,00
-25998,13	-19,00
-25927,46	-113,00
-25857,06	-216,00
-25786,92	-44,00
-25717,04	-172,00
-25647,42	-5,00
-25578,05	10,00
-25508,94	-134,00
-25440,09	-141,00
-25371,48	-44,00
-25303,13	-32,00
-25235,02	34,00
-25167,17	-81,00
-25099,56	-163,00
-25032,19	-205,00
-24965,07	-132,00
-24898,20	-87,00
-24831,56	-55,00
-24765,17	-65,00
-24699,01	-59,00
-24633,10	-116,00
-24567,41	-92,00
-24501,97	-123,00
-24436,75	-105,00
-24371,77	-120,00
-24307,03	-24,00
-24242,51	-96,00
-24178,22	-126,00
-24114,16	-137,00
-24050,32	15,00
-23986,71	-82,00
-23923,32	-20,00
-23860,16	-48,00
-23797,22	-95,00
-23734,50	-93,00
-23672,00	-110,00
-23609,71	-63,00
-23547,65	-107,00
-23485,80	-38,00
-23424,16	-60,00
-23362,74	-127,00
-23301,53	-216,00
-23240,54	-51,00
-23179,75	-96,00
-23119,17	-37,00
-23058,80	-104,00
-22998,64	-89,00
-22938,68	-72,00
-22878,93	-91,00
-22819,39	-43,00
-22760,04	-12,00
-22700,90	-121,00
-22641,96	9,00
-22583,22	-104,00
-22524,68	-28,00
-22466,33	-157,00
-22408,19	-78,00
-22350,23	-38,00
-22292,48	31,00
-22234,92	-134,00
-22177,55	-225,00
-22120,37	-102,00
-22063,38	19,00
-22006,58	-45,00
-21949,98	-25,00
-21893,56	-60,00
-21837,33	-135,00
-21781,28	-69,00
-21725,42	-123,00
-21669,74	6,00
-21614,25	-94,00
-21558,94	-20,00
-21503,81	-32,00
-21448,86	-128,00
-21394,10	9,00
-21339,51	-83,00
-21285,10	-85,00
-21230,86	-63,00
-21176,81	-12,00
-21122,93	-122,00
-21069,22	-104,00
-21015,69	-7,00
-20962,33	-16,00
-20909,14	-78,00
-20856,13	28,00
-20803,28	-10,00
-20750,61	16,00
-20698,10	-110,00
-20645,76	-114,00
-20593,59	-20,00
-20541,59	-1,00
-20489,75	29,00
-20438,07	-37,00
-20386,56	-25,00
-20335,22	-16,00
-20284,03	-21,00
-20233,01	-65,00
-20182,15	-141,00
-20131,45	-71,00
-20080,91	-79,00
-20030,52	-51,00
-19980,30	-123,00
-19930,23	-75,00
-19880,32	50,00
-19830,56	-94,00
-19780,96	24,00
-19731,52	-70,00
-19682,23	-19,00
-19633,09	-202,00
-19584,10	-137,00
-19535,26	-73,00
-19486,58	-94,00
-19438,04	-46,00
-19389,66	-95,00
-19341,42	44,00
-19293,33	-182,00
-19245,39	-40,00
-19197,60	-97,00
-19149,95	-125,00
-19102,45	-9,00
-19055,09	-62,00
-19007,87	-24,00
-18960,80	-45,00
-18913,87	-61,00
-18867,09	-147,00
-18820,44	-74,00
-18773,94	-18,00
-18727,57	-134,00
-18681,35	25,00
-18635,26	-19,00
-18589,31	-92,00
-18543,50	-100,00
-18497,83	-100,00
-18452,29	-45,00
-18406,89	-125,00
-18361,63	-86,00
-18316,50	-114,00
-18271,50	-145,00
-18226,63	-61,00
-18181,90	-18,00
-18137,30	-34,00
-18092,84	-103,00
-18048,50	-42,00
-18004,29	-72,00
-17960,22	-25,00
-17916,27	31,00
-17872,45	-29,00
-17828,76	-63,00
-17785,20	-61,00
-17741,77	-52,00
-17698,46	-40,00
-17655,28	-44,00
-17612,22	-104,00
-17569,29	-106,00
-17526,48	-9,00
-17483,79	-1,00
-17441,23	-183,00
-17398,79	-94,00
-17356,48	3,00
-17314,28	-63,00
-17272,21	-19,00
-17230,26	-94,00
-17188,42	-53,00
-17146,71	-23,00
-17105,12	-100,00
-17063,64	-9,00
-17022,28	-121,00
-16981,04	-42,00
-16939,92	-72,00
-16898,91	-82,00
-16858,02	-83,00
-16817,25	-217,00
-16776,59	7,00
-16736,04	-135,00
-16695,61	19,00
-16655,29	-48,00
-16615,09	-144,00
-16574,99	-18,00
-16535,01	-122,00
-16495,15	-29,00
-16455,39	-16,00
-16415,74	-75,00
-16376,21	-72,00
-16336,78	-54,00
-16297,46	-10,00
-16258,26	-47,00
-16219,16	3,00
-16180,17	-49,00
-16141,28	-88,00
-16102,51	-60,00
-16063,84	-35,00
-16025,27	-6,00
-15986,82	-65,00
-15948,46	-79,00
-15910,22	-182,00
-15872,07	6,00
-15834,04	-228,00
-15796,10	17,00
-15758,27	-37,00
-15720,54	-68,00
-15682,91	-52,00
-15645,39	-170,00
-15607,97	-92,00
-15570,64	-93,00
-15533,42	-70,00
-15496,30	-67,00
-15459,28	-46,00
-15422,36	-24,00
-15385,54	-29,00
-15348,82	-21,00
-15312,19	-53,00
-15275,66	-156,00
-15239,23	-98,00
-15202,90	6,00
-15166,67	-111,00
-15130,53	-108,00
-15094,48	-42,00
-15058,54	39,00
-15022,68	10,00
-14986,93	116,00
-14951,26	-125,00
-14915,69	-138,00
-14880,22	10,00
-14844,84	-38,00
-14809,55	-152,00
-14774,35	-118,00
-14739,25	-88,00
-14704,24	-57,00
-14669,32	-92,00
-14634,49	-70,00
-14599,75	-91,00
-14565,10	-43,00
-14530,55	-202,00
-14496,08	-165,00
-14461,70	-110,00
-14427,41	-37,00
-14393,21	-103,00
-14359,10	-104,00
-14325,07	-83,00
-14291,14	-74,00
-14257,29	-71,00
-14223,52	-35,00
-14189,85	-86,00
-14156,26	-28,00
-14122,76	-88,00
-14089,34	-60,00
-14056,01	-149,00
-14022,76	-171,00
-13989,60	-101,00
-13956,52	-97,00
-13923,53	-159,00
-13890,62	5,00
-13857,79	-138,00
-13825,05	-128,00
-13792,39	-52,00
-13759,81	-45,00
-13727,31	-149,00
-13694,90	-108,00
-13662,57	-27,00
-13630,31	-102,00
-13598,14	66,00
-13566,05	-56,00
-13534,05	-51,00
-13502,12	-19,00
-13470,27	-8,00
-13438,50	-124,00
-13406,80	-33,00
-13375,19	-61,00
-13343,66	-44,00
-13312,20	6,00
-13280,83	-149,00
-13249,53	35,00
-13218,30	-68,00
-13187,16	-33,00
-13156,09	-77,00
-13125,10	-45,00
-13094,18	-90,00
-13063,34	-76,00
-13032,58	-49,00
-13001,89	-23,00
-12971,28	-39,00
-12940,74	-96,00
-12910,27	-8,00
-12879,88	-104,00
-12849,57	-4,00
-12819,33	-37,00
-12789,16	-12,00
-12759,06	-41,00
-12729,04	-170,00
-12699,09	-170,00
-12669,21	-88,00
-12639,41	-172,00
-12609,68	-12,00
-12580,02	-115,00
-12550,43	-148,00
-12520,91	-114,00
-12491,46	-58,00
-12462,08	-60,00
-12432,77	-125,00
-12403,54	-41,00
-12374,37	-26,00
-12345,27	-106,00
-12316,24	30,00
-12287,29	-103,00
-12258,40	-42,00
-12229,57	12,00
-12200,82	-19,00
-12172,14	-52,00
-12143,52	8,00
-12114,97	-83,00
-12086,49	-58,00
-12058,07	-13,00
-12029,73	45,00
-12001,44	-86,00
-11973,23	-62,00
-11945,08	-54,00
-11917,00	-123,00
-11888,98	16,00
-11861,03	-140,00
-11833,15	-8,00
-11805,32	-51,00
-11777,57	-126,00
-11749,88	-1,00
-11722,25	-113,00
-11694,69	5,00
-11667,19	-171,00
-11639,75	-24,00
-11612,38	-42,00
-11585,07	-145,00
-11557,83	-50,00
-11530,65	-118,00
-11503,53	51,00
-11476,47	-31,00
-11449,48	-62,00
-11422,54	-45,00
-11395,67	-121,00
-11368,86	-61,00
-11342,11	-121,00
-11315,43	-75,00
-11288,80	-120,00
-11262,23	-19,00
-11235,73	-129,00
-11209,28	-29,00
-11182,90	-58,00
-11156,57	-84,00
-11130,31	-126,00
-11104,10	-34,00
-11077,96	11,00
-11051,87	-74,00
-11025,84	-50,00
-10999,87	-46,00
-10973,96	-171,00
-10948,11	-14,00
-10922,31	-67,00
-10896,58	-30,00
-10870,90	-34,00
-10845,28	-27,00
-10819,71	2,00
-10794,20	-134,00
-10768,75	-125,00
-10743,36	-187,00
-10718,02	-49,00
-10692,74	-34,00
-10667,52	-133,00
-10642,35	3,00
-10617,24	-137,00
-10592,18	-105,00
-10567,18	23,00
-10542,23	-80,00
-10517,34	-119,00
-10492,51	-49,00
-10467,72	-26,00
-10443,00	-93,00
-10418,32	-9,00
-10393,70	-143,00
-10369,14	-109,00
-10344,63	-37,00
-10320,17	-11,00
-10295,77	12,00
-10271,42	-127,00
-10247,12	23,00
-10222,88	107,00
-10198,68	7,00
-10174,54	62,00
-10150,46	-17,00
-10126,42	-62,00
-10102,44	-69,00
-10078,51	-23,00
-10054,63	-80,00
-10030,80	36,00
-10007,03	33,00
-9983,30	-23,00
-9959,63	96,00
-9936,01	-40,00
-9912,44	91,00
-9888,92	-51,00
-9865,44	61,00
-9842,02	38,00
-9818,65	113,00
-9795,33	191,00
-9772,06	129,00
-9748,84	-7,00
-9725,67	8,00
-9702,55	106,00
-9679,47	174,00
-9656,45	77,00
-9633,47	155,00
-9610,55	177,00
-9587,67	192,00
-9564,84	166,00
-9542,06	366,00
-9519,32	301,00
-9496,64	368,00
-9474,00	406,00
-9451,41	418,00
-9428,87	345,00
-9406,37	342,00
-9383,92	327,00
-9361,52	387,00
-9339,17	324,00
-9316,86	477,00
-9294,60	547,00
-9272,38	654,00
-9250,21	632,00
-9228,09	780,00
-9206,01	739,00
-9183,98	683,00
-9162,00	561,00
-9140,06	447,00
-9118,16	532,00
-9096,31	493,00
-9074,51	591,00
-9052,75	762,00
-9031,04	488,00
-9009,37	535,00
-8987,74	360,00
-8966,16	275,00
-8944,63	245,00
-8923,14	273,00
-8901,69	391,00
-8880,29	341,00
-8858,93	581,00
-8837,61	589,00
-8816,34	600,00
-8795,11	653,00
-8773,92	520,00
-8752,78	395,00
-8731,68	434,00
-8710,62	407,00
-8689,61	527,00
-8668,63	518,00
-8647,70	636,00
-8626,82	605,00
-8605,97	579,00
-8585,17	554,00
-8564,41	438,00
-8543,69	615,00
-8523,01	355,00
-8502,37	273,00
-8481,78	491,00
-8461,23	606,00
-8440,71	531,00
-8420,24	713,00
-8399,81	564,00
-8379,42	627,00
-8359,08	495,00
-8338,77	450,00
-8318,50	469,00
-8298,27	470,00
-8278,09	411,00
-8257,94	543,00
-8237,83	594,00
-8217,76	581,00
-8197,74	707,00
-8177,75	717,00
-8157,80	549,00
-8137,89	425,00
-8118,02	417,00
-8098,19	521,00
-8078,40	555,00
-8058,65	493,00
-8038,93	558,00
-8019,26	587,00
-7999,62	504,00
-7980,02	420,00
-7960,46	416,00
-7940,94	389,00
-7921,46	362,00
-7902,01	450,00
-7882,60	319,00
-7863,23	331,00
-7843,90	428,00
-7824,61	438,00
-7805,35	553,00
-7786,13	536,00
-7766,95	531,00
-7747,80	443,00
-7728,69	345,00
-7709,62	466,00
-7690,59	457,00
-7671,59	504,00
-7652,63	482,00
-7633,70	506,00
-7614,81	513,00
-7595,96	375,00
-7577,15	318,00
-7558,37	437,00
-7539,62	325,00
-7520,91	392,00
-7502,24	631,00
-7483,60	448,00
-7465,00	424,00
-7446,44	345,00
-7427,91	349,00
-7409,41	181,00
-7390,95	268,00
-7372,53	247,00
-7354,14	135,00
-7335,78	281,00
-7317,46	267,00
-7299,18	304,00
-7280,92	366,00
-7262,71	438,00
-7244,52	464,00
-7226,38	380,00
-7208,26	513,00
-7190,18	374,00
-7172,14	245,00
-7154,12	272,00
-7136,15	394,00
-7118,20	405,00
-7100,29	457,00
-7082,41	445,00
-7064,57	457,00
-7046,76	342,00
-7028,98	298,00
-7011,24	100,00
-6993,53	261,00
-6975,85	198,00
-6958,20	151,00
-6940,59	147,00
-6923,01	176,00
-6905,46	230,00
-6887,94	153,00
-6870,46	2776,00
-6853,01	388,00
-6835,59	426,00
-6818,21	282,00
-6800,85	294,00
-6783,53	179,00
-6766,24	122,00
-6748,98	49,00
-6731,76	102,00
-6714,56	-18,00
-6697,40	43,00
-6680,26	20,00
-6663,16	96,00
-6646,09	169,00
-6629,05	226,00
-6612,05	301,00
-6595,07	255,00
-6578,13	232,00
-6561,21	133,00
-6544,33	140,00
-6527,47	-56,00
-6510,65	168,00
-6493,86	-59,00
-6477,10	-33,00
-6460,36	87,00
-6443,66	16,00
-6426,99	45,00
-6410,35	116,00
-6393,74	-25,00
-6377,16	134,00
-6360,61	143,00
-6344,09	250,00
-6327,59	97,00
-6311,13	144,00
-6294,70	161,00
-6278,29	106,00
-6261,92	325,00
-6245,58	201,00
-6229,26	271,00
-6212,97	110,00
-6196,72	242,00
-6180,49	75,00
-6164,29	-146,00
-6148,12	-94,00
-6131,98	-18,00
-6115,86	1,00
-6099,78	-91,00
-6083,72	-130,00
-6067,69	-160,00
-6051,69	-44,00
-6035,72	-43,00
-6019,78	139,00
-6003,87	33,00
-5987,98	69,00
-5972,12	169,00
-5956,29	81,00
-5940,49	169,00
-5924,71	133,00
-5908,96	-64,00
-5893,24	-31,00
-5877,55	53,00
-5861,89	-76,00
-5846,25	-26,00
-5830,64	32,00
-5815,05	-146,00
-5799,50	36,00
-5783,97	-47,00
-5768,47	127,00
-5752,99	95,00
-5737,55	141,00
-5722,12	180,00
-5706,73	175,00
-5691,36	122,00
-5676,02	-66,00
-5660,71	15,00
-5645,42	-61,00
-5630,16	4,00
-5614,92	-61,00
-5599,71	11,00
-5584,53	-44,00
-5569,37	51,00
-5554,24	934,00
-5539,14	72,00
-5524,06	53,00
-5509,01	9,00
-5493,98	109,00
-5478,98	32,00
-5464,00	-36,00
-5449,05	117,00
-5434,13	-76,00
-5419,23	-59,00
-5404,36	-25,00
-5389,51	-22,00
-5374,69	78,00
-5359,89	140,00
-5345,12	282,00
-5330,37	162,00
-5315,65	204,00
-5300,95	116,00
-5286,28	23,00
-5271,63	24,00
-5257,01	3,00
-5242,41	-87,00
-5227,84	-72,00
-5213,29	118,00
-5198,76	-76,00
-5184,26	-99,00
-5169,79	-50,00
-5155,33	-22,00
-5140,91	-61,00
-5126,51	26,00
-5112,13	25,00
-5097,77	-5,00
-5083,44	-106,00
-5069,13	-88,00
-5054,85	-32,00
-5040,59	71,00
-5026,36	13,00
-5012,15	40,00
-4997,96	13,00
-4983,80	75,00
-4969,66	-39,00
-4955,54	-112,00
-4941,44	-14,00
-4927,37	89,00
-4913,33	196,00
-4899,30	258,00
-4885,30	195,00
-4871,33	87,00
-4857,37	19,00
-4843,44	-12,00
-4829,53	-100,00
-4815,65	97,00
-4801,79	-5,00
-4787,95	-57,00
-4774,13	22,00
-4760,34	-4,00
-4746,56	-108,00
-4732,82	7,00
-4719,09	78,00
-4705,38	92,00
-4691,70	117,00
-4678,04	117,00
-4664,41	66,00
-4650,79	9,00
-4637,20	79,00
-4623,63	-15,00
-4610,08	16,00
-4596,56	-57,00
-4583,05	78,00
-4569,57	51,00
-4556,11	-59,00
-4542,67	-36,00
-4529,25	53,00
-4515,86	99,00
-4502,49	64,00
-4489,13	118,00
-4475,80	129,00
-4462,49	87,00
-4449,21	11,00
-4435,94	-83,00
-4422,70	91,00
-4409,47	104,00
-4396,27	21,00
-4383,09	-110,00
-4369,93	-72,00
-4356,79	-93,00
-4343,67	-33,00
-4330,58	29,00
-4317,50	104,00
-4304,45	31,00
-4291,41	-67,00
-4278,40	33,00
-4265,41	-43,00
-4252,44	99,00
-4239,49	-14,00
-4226,55	24,00
-4213,65	90,00
-4200,76	3,00
-4187,89	30,00
-4175,04	57,00
-4162,21	-4,00
-4149,40	-53,00
-4136,61	23,00
-4123,85	-85,00
-4111,10	-42,00
-4098,37	-27,00
-4085,66	-73,00
-4072,98	-41,00
-4060,31	21,00
-4047,66	-214,00
-4035,04	-110,00
-4022,43	-41,00
-4009,84	-40,00
-3997,27	-133,00
-3984,72	-88,00
-3972,19	-66,00
-3959,69	-149,00
-3947,20	-17,00
-3934,73	-80,00
-3922,27	19,00
-3909,84	-190,00
-3897,43	-25,00
-3885,04	82,00
-3872,67	-76,00
-3860,31	29,00
-3847,98	-10,00
-3835,66	-26,00
-3823,36	-32,00
-3811,09	-80,00
-3798,83	-11,00
-3786,59	-11,00
-3774,37	-138,00
-3762,17	-105,00
-3749,98	-34,00
-3737,82	27,00
-3725,67	-133,00
-3713,55	-20,00
-3701,44	-121,00
-3689,35	13,00
-3677,28	-44,00
-3665,22	13,00
-3653,19	-171,00
-3641,17	-85,00
-3629,18	-104,00
-3617,20	-194,00
-3605,24	27,00
-3593,30	-36,00
-3581,37	-128,00
-3569,47	-131,00
-3557,58	-109,00
-3545,71	-88,00
-3533,86	-6,00
-3522,02	-1,00
-3510,21	-152,00
-3498,41	-110,00
-3486,63	-143,00
-3474,87	-84,00
-3463,12	-95,00
-3451,40	-64,00
-3439,69	-146,00
-3428,00	0,00
-3416,33	-83,00
-3404,67	-75,00
-3393,03	-82,00
-3381,41	-20,00
-3369,81	-89,00
-3358,22	-128,00
-3346,66	-35,00
-3335,10	-66,00
-3323,57	46,00
-3312,06	-32,00
-3300,56	-1,00
-3289,08	-76,00
-3277,61	-141,00
-3266,16	-101,00
-3254,73	-18,00
-3243,32	-28,00
-3231,92	-55,00
-3220,55	-68,00
-3209,18	-40,00
-3197,84	-62,00
-3186,51	-96,00
-3175,20	-140,00
-3163,90	-30,00
-3152,63	-98,00
-3141,36	-8,00
-3130,12	-20,00
-3118,89	44,00
-3107,68	-21,00
-3096,49	-90,00
-3085,31	-105,00
-3074,15	-69,00
-3063,00	-38,00
-3051,87	-52,00
-3040,76	-25,00
-3029,67	-103,00
-3018,59	-130,00
-3007,52	-104,00
-2996,48	-119,00
-2985,44	20,00
-2974,43	20,00
-2963,43	-52,00
-2952,45	-104,00
-2941,48	-5,00
-2930,53	-127,00
-2919,60	33,00
-2908,68	-83,00
-2897,78	-110,00
-2886,89	-37,00
-2876,02	-89,00
-2865,17	-109,00
-2854,33	-73,00
-2843,50	-66,00
-2832,70	-40,00
-2821,90	-61,00
-2811,13	-52,00
-2800,37	-7,00
-2789,62	-54,00
-2778,89	34,00
-2768,18	-46,00
-2757,48	-40,00
-2746,80	-90,00
-2736,13	-33,00
-2725,48	-67,00
-2714,84	-134,00
-2704,22	-96,00
-2693,61	-26,00
-2683,02	-39,00
-2672,45	-128,00
-2661,89	-110,00
-2651,34	-42,00
-2640,81	-39,00
-2630,30	-21,00
-2619,80	-65,00
-2609,31	-152,00
-2598,84	-80,00
-2588,39	-4,00
-2577,95	-58,00
-2567,52	-102,00
-2557,11	-96,00
-2546,71	-112,00
-2536,33	-95,00
-2525,97	-155,00
-2515,62	-4,00
-2505,28	45,00
-2494,96	-233,00
-2484,65	-15,00
-2474,36	-91,00
-2464,08	-19,00
-2453,82	28,00
-2443,57	-41,00
-2433,33	-31,00
-2423,11	-134,00
-2412,91	3,00
-2402,72	-34,00
-2392,54	-122,00
-2382,38	-80,00
-2372,23	-107,00
-2362,09	-250,00
-2351,97	-2,00
-2341,87	-36,00
-2331,78	-8,00
-2321,70	-37,00
-2311,64	-92,00
-2301,59	27,00
-2291,55	28,00
-2281,53	-150,00
-2271,53	-19,00
-2261,53	-209,00
-2251,55	-10,00
-2241,59	-64,00
-2231,64	24,00
-2221,70	-50,00
-2211,78	-119,00
-2201,87	-117,00
-2191,97	-50,00
-2182,09	73,00
-2172,22	-103,00
-2162,37	-235,00
-2152,53	-46,00
-2142,70	-40,00
-2132,89	-3,00
-2123,09	-147,00
-2113,30	93,00
-2103,53	-65,00
-2093,77	-167,00
-2084,02	-76,00
-2074,29	-26,00
-2064,57	-108,00
-2054,86	-103,00
-2045,17	-63,00
-2035,49	-99,00
-2025,82	-137,00
-2016,17	-45,00
-2006,53	-106,00
-1996,91	-22,00
-1987,29	-65,00
-1977,69	-33,00
-1968,11	60,00
-1958,53	-98,00
-1948,97	-46,00
-1939,42	-52,00
-1929,89	-68,00
-1920,37	-87,00
-1910,86	-43,00
-1901,36	-90,00
-1891,88	-69,00
-1882,41	-23,00
-1872,95	-124,00
-1863,51	89,00
-1854,08	-168,00
-1844,66	-46,00
-1835,26	-111,00
-1825,86	-48,00
-1816,48	-104,00
-1807,11	-104,00
-1797,76	-198,00
-1788,42	-3,00
-1779,09	-27,00
-1769,77	34,00
-1760,47	-63,00
-1751,17	-81,00
-1741,89	-25,00
-1732,63	-73,00
-1723,37	-41,00
-1714,13	-116,00
-1704,90	-18,00
-1695,68	-5,00
-1686,48	-110,00
-1677,29	-44,00
-1668,11	-55,00
-1658,94	2,00
-1649,78	-41,00
-1640,64	-132,00
-1631,51	41,00
-1622,39	-159,00
-1613,28	10,00
-1604,19	-80,00
-1595,10	58,00
-1586,03	-23,00
-1576,97	0,00
-1567,93	-34,00
-1558,89	-150,00
-1549,87	-188,00
-1540,86	-146,00
-1531,86	1,00
-1522,87	-108,00
-1513,90	-134,00
-1504,93	-107,00
-1495,98	-33,00
-1487,04	-120,00
-1478,12	120,00
-1469,20	-116,00
-1460,30	6,00
-1451,40	-3,00
-1442,52	-23,00
-1433,65	-99,00
-1424,80	-80,00
-1415,95	-24,00
-1407,12	102,00
-1398,30	-91,00
-1389,48	-124,00
-1380,69	-131,00
-1371,90	-56,00
-1363,12	-147,00
-1354,36	17,00
-1345,60	-120,00
-1336,86	-128,00
-1328,13	-71,00
-1319,41	-93,00
-1310,70	-49,00
-1302,01	-135,00
-1293,32	-56,00
-1284,65	-94,00
-1275,99	-6,00
-1267,33	-95,00
-1258,69	15,00
-1250,06	-13,00
-1241,45	-49,00
-1232,84	-27,00
-1224,25	-86,00
-1215,66	-35,00
-1207,09	-193,00
-1198,53	-18,00
-1189,97	-119,00
-1181,43	-147,00
-1172,91	-156,00
-1164,39	-59,00
-1155,88	-84,00
-1147,38	79,00
-1138,90	-27,00
-1130,43	-147,00
-1121,96	-79,00
-1113,51	8,00
-1105,07	-68,00
-1096,64	-130,00
-1088,22	-56,00
-1079,81	19,00
-1071,41	-147,00
-1063,02	69,00
-1054,65	-168,00
-1046,28	-17,00
-1037,92	-138,00
-1029,58	-42,00
-1021,24	-133,00
-1012,92	-8,00
-1004,61	-68,00
-996,30	-148,00
-988,01	-32,00
-979,73	53,00
-971,46	-2,00
-963,20	-73,00
-954,95	-34,00
-946,71	-76,00
-938,48	-178,00
-930,26	-117,00
-922,06	-9,00
-913,86	-30,00
-905,67	-124,00
-897,49	-42,00
-889,33	-158,00
-881,17	-171,00
-873,02	27,00
-864,89	-167,00
-856,76	-89,00
-848,65	-72,00
-840,54	2,00
-832,45	-87,00
-824,36	-84,00
-816,29	68,00
-808,22	-152,00
-800,17	-69,00
-792,12	20,00
-784,09	-93,00
-776,06	-104,00
-768,05	-41,00
-760,04	16,00
-752,05	-63,00
-744,07	3,00
-736,09	-198,00
-728,13	24,00
-720,17	-88,00
-712,23	-115,00
-704,29	-22,00
-696,37	-71,00
-688,45	-95,00
-680,55	-3,00
-672,65	-78,00
-664,77	-11,00
-656,89	-17,00
-649,03	-101,00
-641,17	-114,00
-633,32	-26,00
-625,49	-60,00
-617,66	-111,00
-609,84	-90,00
-602,03	-44,00
-594,23	-20,00
-586,45	-28,00
-578,67	-40,00
-570,90	-42,00
-563,14	-63,00
-555,39	-105,00
-547,65	-29,00
-539,91	-144,00
-532,19	-11,00
-524,48	-114,00
-516,78	-221,00
-509,08	-62,00
-501,40	-73,00
-493,72	-35,00
-486,06	-30,00
-478,40	-117,00
-470,76	43,00
-463,12	-65,00
-455,49	-75,00
-447,87	-62,00
-440,26	-12,00
-432,66	-73,00
-425,07	-114,00
-417,49	-115,00
-409,92	-53,00
-402,35	-12,00
-394,80	44,00
-387,25	-42,00
-379,72	14,00
-372,19	-52,00
-364,67	75,00
-357,17	-58,00
-349,67	-65,00
-342,18	69,00
-334,69	-34,00
-327,22	63,00
-319,76	-22,00
-312,30	8,00
-304,86	18,00
-297,42	30,00
-290,00	-15,00
-282,58	-21,00
-275,17	21,00
-267,77	-101,00
-260,37	106,00
-252,99	-88,00
-245,62	127,00
-238,25	-31,00
-230,90	95,00
-223,55	24,00
-216,21	97,00
-208,88	66,00
-201,56	78,00
-194,25	186,00
-186,94	228,00
-179,65	272,00
-172,36	172,00
-165,08	234,00
-157,81	318,00
-150,55	221,00
-143,30	324,00
-136,06	312,00
-128,82	465,00
-121,60	476,00
-114,38	522,00
-107,17	521,00
-99,97	548,00
-92,78	757,00
-85,60	792,00
-78,42	995,00
-71,25	1170,00
-64,10	1299,00
-56,95	1530,00
-49,81	1918,00
-42,67	2303,00
-35,55	2886,00
-28,43	3907,00
-21,33	6627,00
-14,23	20469,00
-7,14	56043,00
-0,05	55763,00
7,02	55513,00
14,09	55717,00
21,14	22165,00
28,19	8904,00
35,23	5360,00
42,27	3897,00
49,29	3208,00
56,31	2837,00
63,32	2193,00
70,32	1777,00
77,31	1575,00
84,29	1351,00
91,27	1129,00
98,23	1055,00
105,19	943,00
112,14	946,00
119,09	1412,00
126,02	2221,00
132,95	2381,00
139,87	2640,00
146,78	2493,00
153,68	2567,00
160,58	2521,00
167,46	2479,00
174,34	2315,00
181,21	2381,00
188,08	2417,00
194,93	2369,00
201,78	2489,00
208,62	2396,00
215,45	2380,00
222,27	2395,00
229,09	2237,00
235,90	2406,00
242,70	2320,00
249,49	2321,00
256,27	2286,00
263,05	2291,00
269,82	2323,00
276,58	2218,00
283,33	2154,00
290,08	2315,00
296,82	2106,00
303,55	2204,00
310,27	2100,00
316,98	2076,00
323,69	2000,00
330,39	2121,00
337,08	2042,00
343,76	2036,00
350,44	1980,00
357,11	1976,00
363,77	2003,00
370,42	2048,00
377,07	1926,00
383,71	2036,00
390,34	1939,00
396,96	2029,00
403,58	1990,00
410,19	1900,00
416,79	1992,00
423,38	1989,00
429,97	1895,00
436,55	1792,00
443,12	1779,00
449,68	1720,00
456,24	1919,00
462,79	1718,00
469,33	1752,00
475,86	1702,00
482,39	1776,00
488,91	1808,00
495,42	1718,00
501,93	1645,00
508,42	1636,00
514,91	1695,00
521,40	1644,00
527,87	1593,00
534,34	1552,00
540,80	1524,00
547,25	1522,00
553,70	1568,00
560,14	1512,00
566,57	1609,00
573,00	1582,00
579,41	1564,00
585,83	1572,00
592,23	1623,00
598,62	1492,00
605,01	1491,00
611,40	1479,00
617,77	1539,00
624,14	1434,00
630,50	1484,00
636,85	1520,00
643,20	1508,00
649,54	1479,00
655,87	1487,00
662,20	1405,00
668,52	1381,00
674,83	1499,00
681,13	1457,00
687,43	1341,00
693,72	1310,00
700,00	1383,00
706,28	1278,00
712,55	1424,00
718,81	1327,00
725,07	1234,00
731,32	1388,00
737,56	1424,00
743,79	1412,00
750,02	1297,00
756,24	1310,00
762,46	1276,00
768,67	1236,00
774,87	1260,00
781,06	1460,00
787,25	1250,00
793,43	1315,00
799,60	1290,00
805,77	1217,00
811,93	1312,00
818,08	1339,00
824,23	1367,00
830,37	1332,00
836,50	1161,00
842,63	1319,00
848,75	1225,00
854,87	1234,00
860,97	1274,00
867,07	1232,00
873,17	1218,00
879,25	1198,00
885,33	1264,00
891,41	1229,00
897,47	1163,00
903,53	1199,00
909,59	1152,00
915,63	1221,00
921,67	1142,00
927,71	1158,00
933,74	1132,00
939,76	1113,00
945,77	1039,00
951,78	1151,00
957,78	1169,00
963,78	1121,00
969,77	1148,00
975,75	1112,00
981,72	1175,00
987,69	808,00
993,66	1130,00
999,61	1144,00
1005,56	1069,00
1011,51	1100,00
1017,44	1042,00
1023,37	1067,00
1029,30	1045,00
1035,22	1055,00
1041,13	1033,00
1047,03	1136,00
1052,93	1093,00
1058,83	1323,00
1064,71	1387,00
1070,59	1269,00
1076,47	1094,00
1082,33	1041,00
1088,20	1181,00
1094,05	1037,00
1099,90	1101,00
1105,74	1035,00
1111,58	1072,00
1117,41	1124,00
1123,23	1169,00
1129,05	1461,00
1134,86	1179,00
1140,67	1116,00
1146,47	1050,00
1152,26	1086,00
1158,05	969,00
1163,83	1016,00
1169,60	987,00
1175,37	841,00
1181,13	897,00
1186,89	931,00
1192,64	1027,00
1198,38	984,00
1204,12	925,00
1209,85	881,00
1215,58	880,00
1221,30	971,00
1227,02	942,00
1232,72	1079,00
1238,43	949,00
1244,12	990,00
1249,81	984,00
1255,50	984,00
1261,17	1022,00
1266,85	981,00
1272,51	1113,00
1278,17	884,00
1283,83	1201,00
1289,47	1382,00
1295,12	1379,00
1300,75	1450,00
1306,38	1212,00
1312,01	1091,00
1317,63	1015,00
1323,24	1051,00
1328,85	1031,00
1334,45	1113,00
1340,04	1008,00
1345,63	1111,00
1351,22	1140,00
1356,80	1140,00
1362,37	1128,00
1367,93	1215,00
1373,49	1119,00
1379,05	1235,00
1384,60	1181,00
1390,14	1144,00
1395,68	1180,00
1401,21	1193,00
1406,74	1255,00
1412,26	1204,00
1417,77	1217,00
1423,28	1324,00
1428,78	1343,00
1434,28	1422,00
1439,77	1404,00
1445,26	1436,00
1450,74	1332,00
1456,22	1261,00
1461,68	1284,00
1467,15	1268,00
1472,61	1232,00
1478,06	1135,00
1483,51	1087,00
1488,95	1124,00
1494,38	1031,00
1499,81	972,00
1505,24	1013,00
1510,65	905,00
1516,07	875,00
1521,48	850,00
1526,88	966,00
1532,27	807,00
1537,67	766,00
1543,05	897,00
1548,43	973,00
1553,81	860,00
1559,18	751,00
1564,54	801,00
1569,90	940,00
1575,25	843,00
1580,60	842,00
1585,94	846,00
1591,28	810,00
1596,61	901,00
1601,93	940,00
1607,25	836,00
1612,57	810,00
1617,88	802,00
1623,18	943,00
1628,48	857,00
1633,77	810,00
1639,06	890,00
1644,34	707,00
1649,62	826,00
1654,89	752,00
1660,16	749,00
1665,42	712,00
1670,67	678,00
1675,92	828,00
1681,17	735,00
1686,41	722,00
1691,64	708,00
1696,87	821,00
1702,10	648,00
1707,32	744,00
1712,53	744,00
1717,74	596,00
1722,94	858,00
1728,14	709,00
1733,33	675,00
1738,52	678,00
1743,70	646,00
1748,88	718,00
1754,05	586,00
1759,22	716,00
1764,38	-807,00
1769,53	706,00
1774,69	525,00
1779,83	569,00
1784,97	664,00
1790,11	601,00
1795,24	611,00
1800,36	563,00
1805,48	640,00
1810,60	626,00
1815,71	505,00
1820,82	569,00
1825,92	557,00
1831,01	509,00
1836,10	613,00
1841,19	509,00
1846,26	510,00
1851,34	510,00
1856,41	641,00
1861,47	475,00
1866,53	451,00
1871,59	536,00
1876,64	409,00
1881,68	489,00
1886,72	572,00
1891,76	552,00
1896,79	582,00
1901,81	447,00
1906,83	487,00
1911,85	547,00
1916,86	494,00
1921,86	519,00
1926,86	494,00
1931,86	327,00
1936,85	382,00
1941,83	485,00
1946,81	473,00
1951,79	498,00
1956,76	491,00
1961,72	382,00
1966,68	419,00
1971,64	351,00
1976,59	354,00
1981,54	408,00
1986,48	372,00
1991,42	389,00
1996,35	372,00
2001,27	388,00
2006,20	409,00
2011,11	339,00
2016,03	428,00
2020,93	371,00
2025,84	246,00
2030,73	444,00
2035,63	334,00
2040,52	297,00
2045,40	398,00
2050,28	296,00
2055,15	356,00
2060,02	255,00
2064,89	442,00
2069,75	304,00
2074,60	339,00
2079,46	229,00
2084,30	236,00
2089,14	344,00
2093,98	247,00
2098,81	331,00
2103,64	396,00
2108,46	393,00
2113,28	414,00
2118,09	293,00
2122,90	316,00
2127,70	329,00
2132,50	352,00
2137,30	291,00
2142,09	373,00
2146,87	323,00
2151,66	352,00
2156,43	283,00
2161,20	337,00
2165,97	205,00
2170,73	305,00
2175,49	198,00
2180,24	362,00
2184,99	298,00
2189,74	311,00
2194,48	243,00
2199,21	307,00
2203,94	152,00
2208,67	337,00
2213,39	275,00
2218,11	252,00
2222,82	252,00
2227,53	201,00
2232,23	256,00
2236,93	280,00
2241,63	202,00
2246,32	174,00
2251,00	233,00
2255,68	229,00
2260,36	260,00
2265,03	329,00
2269,70	210,00
2274,36	263,00
2279,02	219,00
2283,68	115,00
2288,33	283,00
2292,97	310,00
2297,61	203,00
2302,25	33,00
2306,88	260,00
2311,51	172,00
2316,14	138,00
2320,75	229,00
2325,37	257,00
2329,98	223,00
2334,59	181,00
2339,19	246,00
2343,79	197,00
2348,38	242,00
2352,97	159,00
2357,55	197,00
2362,13	266,00
2366,71	175,00
2371,28	358,00
2375,85	137,00
2380,41	164,00
2384,97	217,00
2389,52	240,00
2394,07	195,00
2398,62	163,00
2403,16	189,00
2407,70	193,00
2412,23	161,00
2416,76	195,00
2421,29	132,00
2425,81	16,00
2430,32	234,00
2434,84	134,00
2439,34	128,00
2443,85	207,00
2448,35	243,00
2452,84	181,00
2457,33	219,00
2461,82	221,00
2466,30	200,00
2470,78	53,00
2475,25	194,00
2479,72	89,00
2484,19	135,00
2488,65	157,00
2493,11	181,00
2497,56	242,00
2502,01	109,00
2506,46	97,00
2510,90	92,00
2515,34	138,00
2519,77	171,00
2524,20	200,00
2528,62	99,00
2533,04	198,00
2537,46	137,00
2541,87	124,00
2546,28	221,00
2550,68	127,00
2555,08	126,00
2559,48	203,00
2563,87	205,00
2568,26	21,00
2572,64	26,00
2577,02	210,00
2581,40	216,00
2585,77	108,00
2590,14	131,00
2594,50	76,00
2598,86	197,00
2603,22	80,00
2607,57	95,00
2611,92	39,00
2616,26	55,00
2620,60	52,00
2624,94	168,00
2629,27	44,00
2633,60	129,00
2637,92	68,00
2642,24	43,00
2646,56	72,00
2650,87	29,00
2655,18	79,00
2659,48	84,00
2663,78	90,00
2668,08	58,00
2672,37	109,00
2676,66	108,00
2680,95	216,00
2685,23	77,00
2689,50	15,00
2693,78	24,00
2698,05	180,00
2702,31	78,00
2706,57	110,00
2710,83	130,00
2715,08	228,00
2719,33	142,00
2723,58	147,00
2727,82	82,00
2732,06	209,00
2736,29	28,00
2740,53	126,00
2744,75	78,00
2748,97	144,00
2753,19	161,00
2757,41	230,00
2761,62	105,00
2765,83	148,00
2770,03	58,00
2774,23	-30,00
2778,43	76,00
2782,62	189,00
2786,81	86,00
2791,00	110,00
2795,18	148,00
2799,35	147,00
2803,53	238,00
2807,70	107,00
2811,86	33,00
2816,03	134,00
2820,19	115,00
2824,34	156,00
2828,49	245,00
2832,64	176,00
2836,78	334,00
2840,92	332,00
2845,06	435,00
2849,19	641,00
2853,32	526,00
2857,45	485,00
2861,57	485,00
2865,69	485,00
2869,80	453,00
2873,91	388,00
2878,02	468,00
2882,12	615,00
2886,22	518,00
2890,32	491,00
2894,41	485,00
2898,50	437,00
2902,58	326,00
2906,67	390,00
2910,74	436,00
2914,82	252,00
2918,89	156,00
2922,96	278,00
2927,02	341,00
2931,08	277,00
2935,13	160,00
2939,19	220,00
2943,24	158,00
2947,28	225,00
2951,32	91,00
2955,36	146,00
2959,40	-70,00
2963,43	130,00
2967,46	72,00
2971,48	99,00
2975,50	153,00
2979,52	82,00
2983,53	131,00
2987,54	23,00
2991,55	9,00
2995,55	-31,00
2999,55	67,00
3003,54	15,00
3007,54	-20,00
3011,53	0,00
3015,51	-41,00
3019,49	88,00
3023,47	-64,00
3027,45	2,00
3031,42	50,00
3035,39	20,00
3039,35	40,00
3043,31	-3,00
3047,27	44,00
3051,22	9,00
3055,17	46,00
3059,12	40,00
3063,06	25,00
3067,00	83,00
3070,94	46,00
3074,87	26,00
3078,80	-90,00
3082,73	9,00
3086,65	-13,00
3090,57	-79,00
3094,49	79,00
3098,40	7,00
3102,31	-85,00
3106,22	8,00
3110,12	-62,00
3114,02	43,00
3117,92	-16,00
3121,81	68,00
3125,70	5,00
3129,58	1,00
3133,47	-48,00
3137,34	-41,00
3141,22	-103,00
3145,09	22,00
3148,96	-29,00
3152,83	-9,00
3156,69	9,00
3160,55	-48,00
3164,40	-1,00
3168,26	100,00
3172,10	-27,00
3175,95	69,00
3179,79	0,00
3183,63	-149,00
3187,47	8,00
3191,30	-111,00
3195,13	-108,00
3198,95	31,00
3202,78	1,00
3206,60	29,00
3210,41	-61,00
3214,23	15,00
3218,03	11,00
3221,84	-68,00
3225,64	-19,00
3229,44	58,00
3233,24	-31,00
3237,03	-30,00
3240,82	16,00
3244,61	-5,00
3248,39	45,00
3252,17	40,00
3255,95	-34,00
3259,72	-2,00
3263,49	20,00
3267,26	-54,00
3271,03	97,00
3274,79	37,00
3278,54	-44,00
3282,30	-22,00
3286,05	74,00
3289,80	-27,00
3293,54	42,00
3297,29	14,00
3301,02	60,00
3304,76	4,00
3308,49	36,00
3312,22	-13,00
3315,95	12,00
3319,67	-112,00
3323,39	-38,00
3327,10	-48,00
3330,82	80,00
3334,53	-35,00
3338,24	-38,00
3341,94	-72,00
3345,64	17,00
3349,34	0,00
3353,03	36,00
3356,72	5,00
3360,41	-116,00
3364,10	35,00
3367,78	-6,00
3371,46	41,00
3375,13	-62,00
3378,81	81,00
3382,48	-38,00
3386,14	11,00
3389,81	55,00
3393,47	-9,00
3397,12	-25,00
3400,78	-52,00
3404,43	12,00
3408,08	16,00
3411,72	1,00
3415,36	61,00
3419,00	-42,00
3422,64	59,00
3426,27	88,00
3429,90	26,00
3433,53	-42,00
3437,15	-145,00
3440,77	-65,00
3444,39	-16,00
3448,00	5,00
3451,62	-71,00
3455,22	-34,00
3458,83	-49,00
3462,43	39,00
3466,03	-20,00
3469,63	-7,00
3473,22	-89,00
3476,81	-50,00
3480,40	-134,00
3483,99	12,00
3487,57	-28,00
3491,15	-6,00
3494,72	-27,00
3498,29	-86,00
3501,86	-20,00
3505,43	-72,00
3508,99	-141,00
3512,56	-23,00
3516,11	-89,00
3519,67	-15,00
3523,22	-85,00
3526,77	-111,00
3530,32	-117,00
3533,86	14,00
3537,40	-161,00
3540,94	-8,00
3544,47	-108,00
3548,00	-76,00
3551,53	-95,00
3555,06	-50,00
3558,58	-93,00
3562,10	-156,00
3565,62	-63,00
3569,13	-51,00
3572,64	-93,00
3576,15	-27,00
3579,66	-75,00
3583,16	-17,00
3586,66	-98,00
3590,16	-79,00
3593,65	-91,00
3597,14	-32,00
3600,63	-74,00
3604,11	-86,00
3607,60	-32,00
3611,08	-37,00
3614,55	34,00
3618,03	-83,00
3621,50	-82,00
3624,97	-86,00
3628,43	-134,00
3631,90	-25,00
3635,36	-46,00
3638,81	-19,00
3642,27	-117,00
3645,72	-29,00
3649,17	-104,00
3652,61	-152,00
3656,06	-74,00
3659,50	-107,00
3662,93	-125,00
3666,37	-31,00
3669,80	-170,00
3673,23	97,00
3676,65	-48,00
3680,08	-120,00
3683,50	-25,00
3686,92	23,00
3690,33	-139,00
3693,74	-64,00
3697,15	-43,00
3700,56	-65,00
3703,96	-56,00
3707,36	-103,00
3710,76	-38,00
3714,16	-7,00
3717,55	-42,00
3720,94	-41,00
3724,33	-47,00
3727,71	-175,00
3731,10	-148,00
3734,48	-27,00
3737,85	-66,00
3741,23	-71,00
3744,60	-31,00
3747,97	-38,00
3751,33	-56,00
3754,69	-64,00
3758,05	-91,00
3761,41	-5,00
3764,77	-7,00
3768,12	-101,00
3771,47	78,00
3774,82	19,00
3778,16	5,00
3781,50	9,00
3784,84	3,00
3788,18	-1,00
>>>>>End Processed Spectral Data<<<<<
