SpectraSuite Data File
++++++++++++++++++++++++++++++++++++
Date: Wed Feb 11 17:17:02 ICT 2026
User: Administrator
Dark Spectrum Present: Yes
Reference Spectrum Present: No
Number of Sampled Component Spectra: 1
Spectrometers: MAYP113682
Integration Time (usec): 3000000 (MAYP113682)
Spectra Averaged: 1 (MAYP113682)
Boxcar Smoothing: 0 (MAYP113682)
Correct for Electrical Dark: No (MAYP113682)
Strobe/Lamp Enabled: No (MAYP113682)
Correct for Detector Non-linearity: No (MAYP113682)
Correct for Stray Light: No (MAYP113682)
Number of Pixels in Processed Spectrum: 2068
>>>>>Begin Processed Spectral Data<<<<<
-37534,58	9,00
-37414,56	6,00
-37295,11	6,00
-37176,24	-1,00
-37057,95	192,00
-36940,22	74,00
-36823,05	196,00
-36706,45	171,00
-36590,40	124,00
-36474,90	145,00
-36359,95	115,00
-36245,55	124,00
-36131,68	97,00
-36018,35	136,00
-35905,55	289,00
-35793,29	191,00
-35681,54	164,00
-35570,32	181,00
-35459,62	245,00
-35349,43	152,00
-35239,75	163,00
-35130,58	140,00
-35021,91	92,00
-34913,74	173,00
-34806,07	64,00
-34698,89	116,00
-34592,20	152,00
-34486,00	186,00
-34380,28	273,00
-34275,04	69,00
-34170,27	24,00
-34065,98	155,00
-33962,16	14,00
-33858,81	207,00
-33755,92	201,00
-33653,49	114,00
-33551,52	91,00
-33450,01	-4,00
-33348,94	223,00
-33248,33	185,00
-33148,16	79,00
-33048,43	121,00
-32949,14	111,00
-32850,29	125,00
-32751,87	176,00
-32653,89	116,00
-32556,33	78,00
-32459,20	167,00
-32362,49	208,00
-32266,19	208,00
-32170,32	171,00
-32074,86	161,00
-31979,82	117,00
-31885,18	153,00
-31790,95	205,00
-31697,12	127,00
-31603,69	148,00
-31510,67	121,00
-31418,04	192,00
-31325,80	207,00
-31233,95	286,00
-31142,49	156,00
-31051,42	202,00
-30960,73	178,00
-30870,43	160,00
-30780,50	111,00
-30690,95	159,00
-30601,77	128,00
-30512,97	95,00
-30424,53	201,00
-30336,46	79,00
-30248,76	156,00
-30161,42	199,00
-30074,44	143,00
-29987,81	84,00
-29901,55	213,00
-29815,63	169,00
-29730,07	154,00
-29644,86	200,00
-29560,00	82,00
-29475,48	194,00
-29391,30	54,00
-29307,47	143,00
-29223,97	229,00
-29140,81	96,00
-29057,99	210,00
-28975,50	231,00
-28893,34	154,00
-28811,51	143,00
-28730,00	254,00
-28648,82	174,00
-28567,97	202,00
-28487,43	112,00
-28407,21	125,00
-28327,32	212,00
-28247,73	208,00
-28168,46	256,00
-28089,50	90,00
-28010,85	119,00
-27932,51	130,00
-27854,48	149,00
-27776,75	80,00
-27699,32	163,00
-27622,19	230,00
-27545,37	167,00
-27468,84	185,00
-27392,60	239,00
-27316,66	152,00
-27241,01	141,00
-27165,66	261,00
-27090,59	38,00
-27015,81	173,00
-26941,31	136,00
-26867,10	146,00
-26793,17	168,00
-26719,52	195,00
-26646,15	24,00
-26573,06	157,00
-26500,24	130,00
-26427,70	141,00
-26355,43	78,00
-26283,43	260,00
-26211,71	181,00
-26140,25	255,00
-26069,06	215,00
-25998,13	211,00
-25927,46	110,00
-25857,06	73,00
-25786,92	252,00
-25717,04	187,00
-25647,42	224,00
-25578,05	158,00
-25508,94	114,00
-25440,09	113,00
-25371,48	191,00
-25303,13	194,00
-25235,02	238,00
-25167,17	268,00
-25099,56	174,00
-25032,19	133,00
-24965,07	70,00
-24898,20	173,00
-24831,56	205,00
-24765,17	201,00
-24699,01	170,00
-24633,10	215,00
-24567,41	139,00
-24501,97	95,00
-24436,75	182,00
-24371,77	133,00
-24307,03	182,00
-24242,51	97,00
-24178,22	76,00
-24114,16	225,00
-24050,32	206,00
-23986,71	164,00
-23923,32	197,00
-23860,16	119,00
-23797,22	169,00
-23734,50	176,00
-23672,00	97,00
-23609,71	217,00
-23547,65	141,00
-23485,80	336,00
-23424,16	126,00
-23362,74	171,00
-23301,53	65,00
-23240,54	172,00
-23179,75	185,00
-23119,17	200,00
-23058,80	165,00
-22998,64	167,00
-22938,68	132,00
-22878,93	168,00
-22819,39	78,00
-22760,04	100,00
-22700,90	165,00
-22641,96	246,00
-22583,22	238,00
-22524,68	61,00
-22466,33	75,00
-22408,19	185,00
-22350,23	68,00
-22292,48	216,00
-22234,92	96,00
-22177,55	47,00
-22120,37	238,00
-22063,38	132,00
-22006,58	191,00
-21949,98	120,00
-21893,56	154,00
-21837,33	203,00
-21781,28	184,00
-21725,42	136,00
-21669,74	152,00
-21614,25	132,00
-21558,94	134,00
-21503,81	148,00
-21448,86	126,00
-21394,10	234,00
-21339,51	97,00
-21285,10	146,00
-21230,86	151,00
-21176,81	174,00
-21122,93	181,00
-21069,22	131,00
-21015,69	207,00
-20962,33	122,00
-20909,14	89,00
-20856,13	242,00
-20803,28	162,00
-20750,61	143,00
-20698,10	156,00
-20645,76	151,00
-20593,59	211,00
-20541,59	184,00
-20489,75	253,00
-20438,07	148,00
-20386,56	272,00
-20335,22	149,00
-20284,03	171,00
-20233,01	187,00
-20182,15	130,00
-20131,45	106,00
-20080,91	101,00
-20030,52	222,00
-19980,30	162,00
-19930,23	148,00
-19880,32	150,00
-19830,56	117,00
-19780,96	193,00
-19731,52	130,00
-19682,23	272,00
-19633,09	-10,00
-19584,10	106,00
-19535,26	80,00
-19486,58	175,00
-19438,04	202,00
-19389,66	182,00
-19341,42	169,00
-19293,33	80,00
-19245,39	117,00
-19197,60	102,00
-19149,95	175,00
-19102,45	265,00
-19055,09	144,00
-19007,87	178,00
-18960,80	227,00
-18913,87	213,00
-18867,09	128,00
-18820,44	150,00
-18773,94	214,00
-18727,57	96,00
-18681,35	228,00
-18635,26	186,00
-18589,31	166,00
-18543,50	186,00
-18497,83	189,00
-18452,29	121,00
-18406,89	82,00
-18361,63	168,00
-18316,50	91,00
-18271,50	125,00
-18226,63	144,00
-18181,90	160,00
-18137,30	325,00
-18092,84	162,00
-18048,50	196,00
-18004,29	113,00
-17960,22	174,00
-17916,27	121,00
-17872,45	168,00
-17828,76	166,00
-17785,20	139,00
-17741,77	204,00
-17698,46	97,00
-17655,28	176,00
-17612,22	147,00
-17569,29	192,00
-17526,48	291,00
-17483,79	210,00
-17441,23	46,00
-17398,79	41,00
-17356,48	182,00
-17314,28	215,00
-17272,21	186,00
-17230,26	66,00
-17188,42	213,00
-17146,71	104,00
-17105,12	107,00
-17063,64	146,00
-17022,28	134,00
-16981,04	180,00
-16939,92	66,00
-16898,91	249,00
-16858,02	62,00
-16817,25	42,00
-16776,59	150,00
-16736,04	114,00
-16695,61	197,00
-16655,29	55,00
-16615,09	79,00
-16574,99	229,00
-16535,01	162,00
-16495,15	16,00
-16455,39	195,00
-16415,74	91,00
-16376,21	148,00
-16336,78	153,00
-16297,46	241,00
-16258,26	144,00
-16219,16	194,00
-16180,17	72,00
-16141,28	162,00
-16102,51	178,00
-16063,84	76,00
-16025,27	111,00
-15986,82	205,00
-15948,46	182,00
-15910,22	101,00
-15872,07	130,00
-15834,04	131,00
-15796,10	227,00
-15758,27	199,00
-15720,54	117,00
-15682,91	187,00
-15645,39	154,00
-15607,97	189,00
-15570,64	144,00
-15533,42	188,00
-15496,30	10,00
-15459,28	167,00
-15422,36	135,00
-15385,54	162,00
-15348,82	170,00
-15312,19	241,00
-15275,66	252,00
-15239,23	140,00
-15202,90	121,00
-15166,67	100,00
-15130,53	148,00
-15094,48	193,00
-15058,54	264,00
-15022,68	228,00
-14986,93	268,00
-14951,26	179,00
-14915,69	110,00
-14880,22	182,00
-14844,84	167,00
-14809,55	223,00
-14774,35	101,00
-14739,25	55,00
-14704,24	60,00
-14669,32	106,00
-14634,49	105,00
-14599,75	140,00
-14565,10	158,00
-14530,55	62,00
-14496,08	123,00
-14461,70	216,00
-14427,41	148,00
-14393,21	118,00
-14359,10	171,00
-14325,07	114,00
-14291,14	222,00
-14257,29	204,00
-14223,52	154,00
-14189,85	144,00
-14156,26	240,00
-14122,76	232,00
-14089,34	168,00
-14056,01	43,00
-14022,76	149,00
-13989,60	181,00
-13956,52	141,00
-13923,53	206,00
-13890,62	155,00
-13857,79	122,00
-13825,05	163,00
-13792,39	119,00
-13759,81	142,00
-13727,31	139,00
-13694,90	129,00
-13662,57	189,00
-13630,31	87,00
-13598,14	234,00
-13566,05	147,00
-13534,05	70,00
-13502,12	175,00
-13470,27	225,00
-13438,50	159,00
-13406,80	158,00
-13375,19	117,00
-13343,66	160,00
-13312,20	163,00
-13280,83	224,00
-13249,53	213,00
-13218,30	58,00
-13187,16	122,00
-13156,09	231,00
-13125,10	170,00
-13094,18	169,00
-13063,34	246,00
-13032,58	197,00
-13001,89	200,00
-12971,28	146,00
-12940,74	167,00
-12910,27	97,00
-12879,88	181,00
-12849,57	196,00
-12819,33	87,00
-12789,16	207,00
-12759,06	159,00
-12729,04	107,00
-12699,09	340,00
-12669,21	204,00
-12639,41	141,00
-12609,68	181,00
-12580,02	249,00
-12550,43	58,00
-12520,91	132,00
-12491,46	201,00
-12462,08	76,00
-12432,77	158,00
-12403,54	227,00
-12374,37	197,00
-12345,27	175,00
-12316,24	180,00
-12287,29	136,00
-12258,40	179,00
-12229,57	179,00
-12200,82	251,00
-12172,14	162,00
-12143,52	211,00
-12114,97	133,00
-12086,49	288,00
-12058,07	151,00
-12029,73	223,00
-12001,44	120,00
-11973,23	229,00
-11945,08	181,00
-11917,00	198,00
-11888,98	195,00
-11861,03	154,00
-11833,15	117,00
-11805,32	41,00
-11777,57	151,00
-11749,88	260,00
-11722,25	96,00
-11694,69	227,00
-11667,19	52,00
-11639,75	227,00
-11612,38	165,00
-11585,07	132,00
-11557,83	159,00
-11530,65	84,00
-11503,53	132,00
-11476,47	201,00
-11449,48	110,00
-11422,54	168,00
-11395,67	149,00
-11368,86	175,00
-11342,11	150,00
-11315,43	262,00
-11288,80	119,00
-11262,23	223,00
-11235,73	63,00
-11209,28	203,00
-11182,90	182,00
-11156,57	145,00
-11130,31	169,00
-11104,10	240,00
-11077,96	182,00
-11051,87	129,00
-11025,84	165,00
-10999,87	170,00
-10973,96	106,00
-10948,11	191,00
-10922,31	228,00
-10896,58	126,00
-10870,90	201,00
-10845,28	169,00
-10819,71	218,00
-10794,20	156,00
-10768,75	175,00
-10743,36	70,00
-10718,02	224,00
-10692,74	182,00
-10667,52	66,00
-10642,35	291,00
-10617,24	144,00
-10592,18	227,00
-10567,18	197,00
-10542,23	224,00
-10517,34	189,00
-10492,51	223,00
-10467,72	115,00
-10443,00	182,00
-10418,32	339,00
-10393,70	120,00
-10369,14	212,00
-10344,63	215,00
-10320,17	260,00
-10295,77	254,00
-10271,42	158,00
-10247,12	266,00
-10222,88	305,00
-10198,68	246,00
-10174,54	273,00
-10150,46	361,00
-10126,42	279,00
-10102,44	285,00
-10078,51	293,00
-10054,63	225,00
-10030,80	325,00
-10007,03	384,00
-9983,30	286,00
-9959,63	481,00
-9936,01	264,00
-9912,44	332,00
-9888,92	392,00
-9865,44	347,00
-9842,02	416,00
-9818,65	437,00
-9795,33	413,00
-9772,06	398,00
-9748,84	334,00
-9725,67	415,00
-9702,55	545,00
-9679,47	541,00
-9656,45	576,00
-9633,47	501,00
-9610,55	648,00
-9587,67	758,00
-9564,84	721,00
-9542,06	843,00
-9519,32	742,00
-9496,64	954,00
-9474,00	896,00
-9451,41	992,00
-9428,87	857,00
-9406,37	954,00
-9383,92	825,00
-9361,52	929,00
-9339,17	927,00
-9316,86	1156,00
-9294,60	1211,00
-9272,38	1359,00
-9250,21	1572,00
-9228,09	1726,00
-9206,01	1532,00
-9183,98	1445,00
-9162,00	1200,00
-9140,06	1225,00
-9118,16	1211,00
-9096,31	1257,00
-9074,51	1439,00
-9052,75	1566,00
-9031,04	1386,00
-9009,37	1349,00
-8987,74	1076,00
-8966,16	937,00
-8944,63	898,00
-8923,14	769,00
-8901,69	968,00
-8880,29	970,00
-8858,93	1115,00
-8837,61	1290,00
-8816,34	1426,00
-8795,11	1384,00
-8773,92	1225,00
-8752,78	1017,00
-8731,68	1122,00
-8710,62	1127,00
-8689,61	1138,00
-8668,63	1181,00
-8647,70	1411,00
-8626,82	1403,00
-8605,97	1331,00
-8585,17	1167,00
-8564,41	1027,00
-8543,69	943,00
-8523,01	855,00
-8502,37	896,00
-8481,78	1064,00
-8461,23	1130,00
-8440,71	1143,00
-8420,24	1334,00
-8399,81	1299,00
-8379,42	1383,00
-8359,08	1175,00
-8338,77	1093,00
-8318,50	1086,00
-8298,27	1030,00
-8278,09	981,00
-8257,94	1119,00
-8237,83	1245,00
-8217,76	1185,00
-8197,74	1359,00
-8177,75	1296,00
-8157,80	1208,00
-8137,89	1135,00
-8118,02	955,00
-8098,19	1062,00
-8078,40	1087,00
-8058,65	1131,00
-8038,93	1164,00
-8019,26	1081,00
-7999,62	991,00
-7980,02	1005,00
-7960,46	882,00
-7940,94	884,00
-7921,46	885,00
-7902,01	897,00
-7882,60	712,00
-7863,23	858,00
-7843,90	917,00
-7824,61	879,00
-7805,35	1020,00
-7786,13	987,00
-7766,95	1002,00
-7747,80	938,00
-7728,69	870,00
-7709,62	927,00
-7690,59	915,00
-7671,59	1048,00
-7652,63	1052,00
-7633,70	1068,00
-7614,81	1027,00
-7595,96	940,00
-7577,15	773,00
-7558,37	857,00
-7539,62	846,00
-7520,91	921,00
-7502,24	995,00
-7483,60	867,00
-7465,00	891,00
-7446,44	840,00
-7427,91	771,00
-7409,41	630,00
-7390,95	580,00
-7372,53	521,00
-7354,14	485,00
-7335,78	554,00
-7317,46	556,00
-7299,18	553,00
-7280,92	721,00
-7262,71	953,00
-7244,52	897,00
-7226,38	829,00
-7208,26	950,00
-7190,18	782,00
-7172,14	802,00
-7154,12	658,00
-7136,15	856,00
-7118,20	855,00
-7100,29	828,00
-7082,41	910,00
-7064,57	908,00
-7046,76	748,00
-7028,98	696,00
-7011,24	491,00
-6993,53	543,00
-6975,85	475,00
-6958,20	408,00
-6940,59	409,00
-6923,01	425,00
-6905,46	595,00
-6887,94	546,00
-6870,46	728,00
-6853,01	833,00
-6835,59	726,00
-6818,21	698,00
-6800,85	541,00
-6783,53	407,00
-6766,24	357,00
-6748,98	240,00
-6731,76	384,00
-6714,56	204,00
-6697,40	290,00
-6680,26	348,00
-6663,16	357,00
-6646,09	510,00
-6629,05	512,00
-6612,05	525,00
-6595,07	649,00
-6578,13	603,00
-6561,21	455,00
-6544,33	331,00
-6527,47	201,00
-6510,65	349,00
-6493,86	218,00
-6477,10	94,00
-6460,36	329,00
-6443,66	318,00
-6426,99	181,00
-6410,35	324,00
-6393,74	296,00
-6377,16	387,00
-6360,61	367,00
-6344,09	494,00
-6327,59	339,00
-6311,13	420,00
-6294,70	501,00
-6278,29	437,00
-6261,92	616,00
-6245,58	527,00
-6229,26	608,00
-6212,97	444,00
-6196,72	471,00
-6180,49	364,00
-6164,29	214,00
-6148,12	217,00
-6131,98	127,00
-6115,86	177,00
-6099,78	150,00
-6083,72	107,00
-6067,69	38,00
-6051,69	171,00
-6035,72	132,00
-6019,78	344,00
-6003,87	341,00
-5987,98	410,00
-5972,12	356,00
-5956,29	452,00
-5940,49	445,00
-5924,71	250,00
-5908,96	248,00
-5893,24	161,00
-5877,55	159,00
-5861,89	116,00
-5846,25	145,00
-5830,64	228,00
-5815,05	77,00
-5799,50	291,00
-5783,97	279,00
-5768,47	307,00
-5752,99	415,00
-5737,55	397,00
-5722,12	433,00
-5706,73	428,00
-5691,36	311,00
-5676,02	197,00
-5660,71	189,00
-5645,42	321,00
-5630,16	217,00
-5614,92	257,00
-5599,71	319,00
-5584,53	292,00
-5569,37	289,00
-5554,24	158,00
-5539,14	360,00
-5524,06	306,00
-5509,01	210,00
-5493,98	306,00
-5478,98	235,00
-5464,00	296,00
-5449,05	380,00
-5434,13	177,00
-5419,23	248,00
-5404,36	146,00
-5389,51	277,00
-5374,69	253,00
-5359,89	375,00
-5345,12	534,00
-5330,37	495,00
-5315,65	399,00
-5300,95	402,00
-5286,28	299,00
-5271,63	256,00
-5257,01	242,00
-5242,41	192,00
-5227,84	162,00
-5213,29	243,00
-5198,76	135,00
-5184,26	148,00
-5169,79	184,00
-5155,33	213,00
-5140,91	218,00
-5126,51	283,00
-5112,13	334,00
-5097,77	229,00
-5083,44	190,00
-5069,13	235,00
-5054,85	169,00
-5040,59	335,00
-5026,36	197,00
-5012,15	196,00
-4997,96	267,00
-4983,80	274,00
-4969,66	248,00
-4955,54	133,00
-4941,44	243,00
-4927,37	354,00
-4913,33	544,00
-4899,30	571,00
-4885,30	418,00
-4871,33	349,00
-4857,37	309,00
-4843,44	167,00
-4829,53	119,00
-4815,65	334,00
-4801,79	256,00
-4787,95	151,00
-4774,13	200,00
-4760,34	135,00
-4746,56	51,00
-4732,82	286,00
-4719,09	246,00
-4705,38	365,00
-4691,70	446,00
-4678,04	531,00
-4664,41	290,00
-4650,79	310,00
-4637,20	244,00
-4623,63	209,00
-4610,08	176,00
-4596,56	274,00
-4583,05	204,00
-4569,57	307,00
-4556,11	174,00
-4542,67	179,00
-4529,25	298,00
-4515,86	357,00
-4502,49	382,00
-4489,13	451,00
-4475,80	386,00
-4462,49	211,00
-4449,21	334,00
-4435,94	176,00
-4422,70	250,00
-4409,47	325,00
-4396,27	250,00
-4383,09	275,00
-4369,93	224,00
-4356,79	193,00
-4343,67	283,00
-4330,58	196,00
-4317,50	253,00
-4304,45	218,00
-4291,41	189,00
-4278,40	203,00
-4265,41	216,00
-4252,44	215,00
-4239,49	437,00
-4226,55	330,00
-4213,65	338,00
-4200,76	223,00
-4187,89	278,00
-4175,04	193,00
-4162,21	170,00
-4149,40	132,00
-4136,61	145,00
-4123,85	216,00
-4111,10	160,00
-4098,37	211,00
-4085,66	131,00
-4072,98	177,00
-4060,31	217,00
-4047,66	192,00
-4035,04	291,00
-4022,43	130,00
-4009,84	147,00
-3997,27	170,00
-3984,72	184,00
-3972,19	172,00
-3959,69	74,00
-3947,20	198,00
-3934,73	215,00
-3922,27	171,00
-3909,84	51,00
-3897,43	239,00
-3885,04	321,00
-3872,67	98,00
-3860,31	243,00
-3847,98	151,00
-3835,66	149,00
-3823,36	172,00
-3811,09	135,00
-3798,83	197,00
-3786,59	109,00
-3774,37	84,00
-3762,17	190,00
-3749,98	140,00
-3737,82	151,00
-3725,67	185,00
-3713,55	185,00
-3701,44	253,00
-3689,35	107,00
-3677,28	225,00
-3665,22	132,00
-3653,19	73,00
-3641,17	153,00
-3629,18	194,00
-3617,20	139,00
-3605,24	203,00
-3593,30	150,00
-3581,37	183,00
-3569,47	120,00
-3557,58	67,00
-3545,71	166,00
-3533,86	204,00
-3522,02	252,00
-3510,21	106,00
-3498,41	122,00
-3486,63	114,00
-3474,87	179,00
-3463,12	217,00
-3451,40	267,00
-3439,69	203,00
-3428,00	212,00
-3416,33	117,00
-3404,67	223,00
-3393,03	124,00
-3381,41	157,00
-3369,81	132,00
-3358,22	115,00
-3346,66	218,00
-3335,10	210,00
-3323,57	218,00
-3312,06	159,00
-3300,56	219,00
-3289,08	223,00
-3277,61	79,00
-3266,16	93,00
-3254,73	151,00
-3243,32	220,00
-3231,92	63,00
-3220,55	232,00
-3209,18	254,00
-3197,84	115,00
-3186,51	123,00
-3175,20	136,00
-3163,90	113,00
-3152,63	139,00
-3141,36	202,00
-3130,12	117,00
-3118,89	274,00
-3107,68	141,00
-3096,49	16,00
-3085,31	125,00
-3074,15	126,00
-3063,00	170,00
-3051,87	144,00
-3040,76	234,00
-3029,67	218,00
-3018,59	156,00
-3007,52	202,00
-2996,48	140,00
-2985,44	118,00
-2974,43	239,00
-2963,43	213,00
-2952,45	139,00
-2941,48	125,00
-2930,53	139,00
-2919,60	176,00
-2908,68	105,00
-2897,78	94,00
-2886,89	115,00
-2876,02	152,00
-2865,17	113,00
-2854,33	127,00
-2843,50	163,00
-2832,70	186,00
-2821,90	237,00
-2811,13	99,00
-2800,37	219,00
-2789,62	263,00
-2778,89	193,00
-2768,18	208,00
-2757,48	114,00
-2746,80	158,00
-2736,13	169,00
-2725,48	183,00
-2714,84	43,00
-2704,22	90,00
-2693,61	242,00
-2683,02	139,00
-2672,45	148,00
-2661,89	177,00
-2651,34	217,00
-2640,81	126,00
-2630,30	216,00
-2619,80	110,00
-2609,31	165,00
-2598,84	192,00
-2588,39	181,00
-2577,95	136,00
-2567,52	131,00
-2557,11	117,00
-2546,71	88,00
-2536,33	148,00
-2525,97	152,00
-2515,62	173,00
-2505,28	191,00
-2494,96	147,00
-2484,65	168,00
-2474,36	330,00
-2464,08	191,00
-2453,82	265,00
-2443,57	145,00
-2433,33	194,00
-2423,11	130,00
-2412,91	168,00
-2402,72	73,00
-2392,54	100,00
-2382,38	171,00
-2372,23	227,00
-2362,09	36,00
-2351,97	223,00
-2341,87	244,00
-2331,78	148,00
-2321,70	320,00
-2311,64	67,00
-2301,59	236,00
-2291,55	170,00
-2281,53	114,00
-2271,53	168,00
-2261,53	53,00
-2251,55	202,00
-2241,59	92,00
-2231,64	274,00
-2221,70	99,00
-2211,78	80,00
-2201,87	168,00
-2191,97	198,00
-2182,09	206,00
-2172,22	110,00
-2162,37	13,00
-2152,53	127,00
-2142,70	83,00
-2132,89	145,00
-2123,09	196,00
-2113,30	185,00
-2103,53	167,00
-2093,77	97,00
-2084,02	120,00
-2074,29	234,00
-2064,57	141,00
-2054,86	125,00
-2045,17	125,00
-2035,49	172,00
-2025,82	163,00
-2016,17	244,00
-2006,53	113,00
-1996,91	167,00
-1987,29	127,00
-1977,69	222,00
-1968,11	261,00
-1958,53	87,00
-1948,97	145,00
-1939,42	166,00
-1929,89	123,00
-1920,37	160,00
-1910,86	123,00
-1901,36	207,00
-1891,88	133,00
-1882,41	114,00
-1872,95	181,00
-1863,51	271,00
-1854,08	63,00
-1844,66	155,00
-1835,26	112,00
-1825,86	187,00
-1816,48	185,00
-1807,11	110,00
-1797,76	90,00
-1788,42	262,00
-1779,09	144,00
-1769,77	195,00
-1760,47	118,00
-1751,17	197,00
-1741,89	166,00
-1732,63	190,00
-1723,37	211,00
-1714,13	143,00
-1704,90	109,00
-1695,68	196,00
-1686,48	197,00
-1677,29	260,00
-1668,11	192,00
-1658,94	171,00
-1649,78	164,00
-1640,64	103,00
-1631,51	266,00
-1622,39	99,00
-1613,28	229,00
-1604,19	300,00
-1595,10	211,00
-1586,03	105,00
-1576,97	271,00
-1567,93	122,00
-1558,89	145,00
-1549,87	97,00
-1540,86	116,00
-1531,86	144,00
-1522,87	174,00
-1513,90	103,00
-1504,93	204,00
-1495,98	191,00
-1487,04	179,00
-1478,12	343,00
-1469,20	146,00
-1460,30	214,00
-1451,40	210,00
-1442,52	197,00
-1433,65	138,00
-1424,80	181,00
-1415,95	174,00
-1407,12	354,00
-1398,30	143,00
-1389,48	50,00
-1380,69	130,00
-1371,90	142,00
-1363,12	42,00
-1354,36	223,00
-1345,60	109,00
-1336,86	201,00
-1328,13	265,00
-1319,41	205,00
-1310,70	126,00
-1302,01	145,00
-1293,32	87,00
-1284,65	156,00
-1275,99	156,00
-1267,33	21,00
-1258,69	283,00
-1250,06	212,00
-1241,45	237,00
-1232,84	264,00
-1224,25	190,00
-1215,66	177,00
-1207,09	87,00
-1198,53	301,00
-1189,97	144,00
-1181,43	208,00
-1172,91	142,00
-1164,39	108,00
-1155,88	197,00
-1147,38	198,00
-1138,90	262,00
-1130,43	127,00
-1121,96	208,00
-1113,51	170,00
-1105,07	165,00
-1096,64	168,00
-1088,22	308,00
-1079,81	236,00
-1071,41	94,00
-1063,02	140,00
-1054,65	189,00
-1046,28	197,00
-1037,92	187,00
-1029,58	226,00
-1021,24	157,00
-1012,92	303,00
-1004,61	239,00
-996,30	274,00
-988,01	149,00
-979,73	228,00
-971,46	165,00
-963,20	67,00
-954,95	266,00
-946,71	206,00
-938,48	114,00
-930,26	152,00
-922,06	152,00
-913,86	248,00
-905,67	169,00
-897,49	199,00
-889,33	116,00
-881,17	187,00
-873,02	300,00
-864,89	104,00
-856,76	138,00
-848,65	269,00
-840,54	202,00
-832,45	225,00
-824,36	156,00
-816,29	299,00
-808,22	46,00
-800,17	164,00
-792,12	346,00
-784,09	116,00
-776,06	190,00
-768,05	200,00
-760,04	175,00
-752,05	200,00
-744,07	174,00
-736,09	105,00
-728,13	213,00
-720,17	156,00
-712,23	120,00
-704,29	179,00
-696,37	163,00
-688,45	78,00
-680,55	147,00
-672,65	187,00
-664,77	176,00
-656,89	261,00
-649,03	194,00
-641,17	214,00
-633,32	226,00
-625,49	317,00
-617,66	141,00
-609,84	191,00
-602,03	149,00
-594,23	228,00
-586,45	263,00
-578,67	207,00
-570,90	242,00
-563,14	119,00
-555,39	143,00
-547,65	187,00
-539,91	115,00
-532,19	259,00
-524,48	276,00
-516,78	115,00
-509,08	206,00
-501,40	68,00
-493,72	164,00
-486,06	211,00
-478,40	125,00
-470,76	295,00
-463,12	152,00
-455,49	191,00
-447,87	136,00
-440,26	130,00
-432,66	187,00
-425,07	201,00
-417,49	137,00
-409,92	155,00
-402,35	178,00
-394,80	272,00
-387,25	214,00
-379,72	216,00
-372,19	277,00
-364,67	293,00
-357,17	213,00
-349,67	314,00
-342,18	277,00
-334,69	315,00
-327,22	379,00
-319,76	247,00
-312,30	267,00
-304,86	322,00
-297,42	322,00
-290,00	296,00
-282,58	244,00
-275,17	351,00
-267,77	299,00
-260,37	312,00
-252,99	211,00
-245,62	432,00
-238,25	267,00
-230,90	328,00
-223,55	336,00
-216,21	439,00
-208,88	492,00
-201,56	479,00
-194,25	492,00
-186,94	565,00
-179,65	633,00
-172,36	599,00
-165,08	696,00
-157,81	755,00
-150,55	739,00
-143,30	887,00
-136,06	805,00
-128,82	1009,00
-121,60	1178,00
-114,38	1203,00
-107,17	1461,00
-99,97	1521,00
-92,78	1819,00
-85,60	1896,00
-78,42	2299,00
-71,25	2646,00
-64,10	2954,00
-56,95	3500,00
-49,81	4209,00
-42,67	5135,00
-35,55	6336,00
-28,43	8264,00
-21,33	13606,00
-14,23	42154,00
-7,14	56043,00
-0,05	55763,00
7,02	55513,00
14,09	55717,00
21,14	41531,00
28,19	18218,00
35,23	11339,00
42,27	8310,00
49,29	6888,00
56,31	5715,00
63,32	4775,00
70,32	3882,00
77,31	3463,00
84,29	2983,00
91,27	2611,00
98,23	2348,00
105,19	2154,00
112,14	1962,00
119,09	2183,00
126,02	2965,00
132,95	3053,00
139,87	3049,00
146,78	2811,00
153,68	2783,00
160,58	2567,00
167,46	2560,00
174,34	2445,00
181,21	2463,00
188,08	2532,00
194,93	2332,00
201,78	2449,00
208,62	2424,00
215,45	2289,00
222,27	2373,00
229,09	2374,00
235,90	2232,00
242,70	2266,00
249,49	2190,00
256,27	2271,00
263,05	2105,00
269,82	2090,00
276,58	2111,00
283,33	2000,00
290,08	2052,00
296,82	1961,00
303,55	2025,00
310,27	1987,00
316,98	1892,00
323,69	1865,00
330,39	1878,00
337,08	1897,00
343,76	1927,00
350,44	1831,00
357,11	1803,00
363,77	1802,00
370,42	1838,00
377,07	1733,00
383,71	1771,00
390,34	1866,00
396,96	1828,00
403,58	1777,00
410,19	1805,00
416,79	1945,00
423,38	2042,00
429,97	1825,00
436,55	1685,00
443,12	1664,00
449,68	1615,00
456,24	1614,00
462,79	1624,00
469,33	1553,00
475,86	1600,00
482,39	1642,00
488,91	1610,00
495,42	1518,00
501,93	1464,00
508,42	1467,00
514,91	1564,00
521,40	1424,00
527,87	1423,00
534,34	1458,00
540,80	1381,00
547,25	1387,00
553,70	1447,00
560,14	1340,00
566,57	1453,00
573,00	1354,00
579,41	1345,00
585,83	1438,00
592,23	1496,00
598,62	1310,00
605,01	1244,00
611,40	1370,00
617,77	1405,00
624,14	1226,00
630,50	1357,00
636,85	1401,00
643,20	1279,00
649,54	1341,00
655,87	1396,00
662,20	1223,00
668,52	1313,00
674,83	1438,00
681,13	1316,00
687,43	1279,00
693,72	1255,00
700,00	1248,00
706,28	1254,00
712,55	1253,00
718,81	1342,00
725,07	1315,00
731,32	1293,00
737,56	1308,00
743,79	1312,00
750,02	1321,00
756,24	1240,00
762,46	1250,00
768,67	1302,00
774,87	1224,00
781,06	1418,00
787,25	1299,00
793,43	1317,00
799,60	1246,00
805,77	1257,00
811,93	1206,00
818,08	1271,00
824,23	1414,00
830,37	1309,00
836,50	1220,00
842,63	1343,00
848,75	1256,00
854,87	1310,00
860,97	1285,00
867,07	1198,00
873,17	1257,00
879,25	1322,00
885,33	1324,00
891,41	1275,00
897,47	1278,00
903,53	1274,00
909,59	1118,00
915,63	1203,00
921,67	1214,00
927,71	1283,00
933,74	1266,00
939,76	1139,00
945,77	1166,00
951,78	1202,00
957,78	1131,00
963,78	1274,00
969,77	1198,00
975,75	1137,00
981,72	1174,00
987,69	1310,00
993,66	1136,00
999,61	1129,00
1005,56	1165,00
1011,51	1222,00
1017,44	1178,00
1023,37	1136,00
1029,30	1103,00
1035,22	1189,00
1041,13	1081,00
1047,03	1264,00
1052,93	1297,00
1058,83	1611,00
1064,71	1670,00
1070,59	1582,00
1076,47	1322,00
1082,33	1231,00
1088,20	1274,00
1094,05	1155,00
1099,90	1136,00
1105,74	1219,00
1111,58	1148,00
1117,41	1184,00
1123,23	1277,00
1129,05	1656,00
1134,86	1470,00
1140,67	1235,00
1146,47	1227,00
1152,26	1147,00
1158,05	1142,00
1163,83	1114,00
1169,60	1074,00
1175,37	998,00
1181,13	1125,00
1186,89	1105,00
1192,64	1063,00
1198,38	1035,00
1204,12	1197,00
1209,85	1014,00
1215,58	826,00
1221,30	1104,00
1227,02	1034,00
1232,72	1112,00
1238,43	1087,00
1244,12	1027,00
1249,81	1079,00
1255,50	1129,00
1261,17	1010,00
1266,85	1071,00
1272,51	1223,00
1278,17	1104,00
1283,83	1251,00
1289,47	1620,00
1295,12	1872,00
1300,75	1867,00
1306,38	1575,00
1312,01	1421,00
1317,63	1203,00
1323,24	1272,00
1328,85	1270,00
1334,45	1285,00
1340,04	1203,00
1345,63	1230,00
1351,22	1278,00
1356,80	1266,00
1362,37	1321,00
1367,93	1427,00
1373,49	1257,00
1379,05	1360,00
1384,60	1289,00
1390,14	1243,00
1395,68	1202,00
1401,21	1225,00
1406,74	1350,00
1412,26	1350,00
1417,77	1550,00
1423,28	1534,00
1428,78	1715,00
1434,28	1870,00
1439,77	2114,00
1445,26	2164,00
1450,74	2015,00
1456,22	1874,00
1461,68	1918,00
1467,15	1710,00
1472,61	1579,00
1478,06	1492,00
1483,51	1263,00
1488,95	1312,00
1494,38	1280,00
1499,81	1036,00
1505,24	1296,00
1510,65	1116,00
1516,07	1041,00
1521,48	1000,00
1526,88	1012,00
1532,27	1011,00
1537,67	1039,00
1543,05	1101,00
1548,43	1021,00
1553,81	1129,00
1559,18	816,00
1564,54	1110,00
1569,90	1057,00
1575,25	1017,00
1580,60	878,00
1585,94	1032,00
1591,28	933,00
1596,61	912,00
1601,93	954,00
1607,25	984,00
1612,57	866,00
1617,88	970,00
1623,18	1057,00
1628,48	1028,00
1633,77	960,00
1639,06	1063,00
1644,34	872,00
1649,62	897,00
1654,89	918,00
1660,16	895,00
1665,42	983,00
1670,67	979,00
1675,92	967,00
1681,17	924,00
1686,41	869,00
1691,64	795,00
1696,87	941,00
1702,10	789,00
1707,32	860,00
1712,53	921,00
1717,74	730,00
1722,94	942,00
1728,14	781,00
1733,33	854,00
1738,52	862,00
1743,70	863,00
1748,88	880,00
1754,05	780,00
1759,22	900,00
1764,38	863,00
1769,53	854,00
1774,69	642,00
1779,83	836,00
1784,97	840,00
1790,11	857,00
1795,24	899,00
1800,36	699,00
1805,48	839,00
1810,60	780,00
1815,71	742,00
1820,82	684,00
1825,92	624,00
1831,01	631,00
1836,10	761,00
1841,19	734,00
1846,26	632,00
1851,34	729,00
1856,41	783,00
1861,47	711,00
1866,53	766,00
1871,59	724,00
1876,64	696,00
1881,68	670,00
1886,72	747,00
1891,76	751,00
1896,79	774,00
1901,81	686,00
1906,83	568,00
1911,85	619,00
1916,86	739,00
1921,86	694,00
1926,86	686,00
1931,86	599,00
1936,85	607,00
1941,83	606,00
1946,81	642,00
1951,79	651,00
1956,76	746,00
1961,72	577,00
1966,68	688,00
1971,64	494,00
1976,59	614,00
1981,54	437,00
1986,48	663,00
1991,42	575,00
1996,35	687,00
2001,27	554,00
2006,20	572,00
2011,11	610,00
2016,03	671,00
2020,93	557,00
2025,84	461,00
2030,73	640,00
2035,63	571,00
2040,52	459,00
2045,40	474,00
2050,28	476,00
2055,15	557,00
2060,02	566,00
2064,89	611,00
2069,75	469,00
2074,60	563,00
2079,46	530,00
2084,30	491,00
2089,14	583,00
2093,98	465,00
2098,81	541,00
2103,64	538,00
2108,46	587,00
2113,28	632,00
2118,09	501,00
2122,90	573,00
2127,70	557,00
2132,50	602,00
2137,30	495,00
2142,09	516,00
2146,87	589,00
2151,66	488,00
2156,43	513,00
2161,20	599,00
2165,97	444,00
2170,73	528,00
2175,49	510,00
2180,24	535,00
2184,99	634,00
2189,74	419,00
2194,48	459,00
2199,21	526,00
2203,94	459,00
2208,67	581,00
2213,39	474,00
2218,11	491,00
2222,82	519,00
2227,53	465,00
2232,23	437,00
2236,93	579,00
2241,63	576,00
2246,32	575,00
2251,00	469,00
2255,68	497,00
2260,36	548,00
2265,03	400,00
2269,70	472,00
2274,36	453,00
2279,02	539,00
2283,68	355,00
2288,33	491,00
2292,97	553,00
2297,61	310,00
2302,25	392,00
2306,88	482,00
2311,51	393,00
2316,14	472,00
2320,75	377,00
2325,37	456,00
2329,98	467,00
2334,59	491,00
2339,19	484,00
2343,79	328,00
2348,38	534,00
2352,97	436,00
2357,55	560,00
2362,13	445,00
2366,71	403,00
2371,28	625,00
2375,85	404,00
2380,41	428,00
2384,97	492,00
2389,52	354,00
2394,07	425,00
2398,62	398,00
2403,16	400,00
2407,70	331,00
2412,23	397,00
2416,76	451,00
2421,29	392,00
2425,81	305,00
2430,32	514,00
2434,84	418,00
2439,34	500,00
2443,85	495,00
2448,35	408,00
2452,84	400,00
2457,33	402,00
2461,82	387,00
2466,30	449,00
2470,78	350,00
2475,25	334,00
2479,72	349,00
2484,19	443,00
2488,65	415,00
2493,11	348,00
2497,56	407,00
2502,01	404,00
2506,46	354,00
2510,90	301,00
2515,34	421,00
2519,77	388,00
2524,20	371,00
2528,62	420,00
2533,04	331,00
2537,46	358,00
2541,87	404,00
2546,28	357,00
2550,68	415,00
2555,08	349,00
2559,48	470,00
2563,87	465,00
2568,26	384,00
2572,64	364,00
2577,02	328,00
2581,40	439,00
2585,77	430,00
2590,14	447,00
2594,50	394,00
2598,86	348,00
2603,22	306,00
2607,57	270,00
2611,92	313,00
2616,26	321,00
2620,60	430,00
2624,94	399,00
2629,27	332,00
2633,60	433,00
2637,92	372,00
2642,24	266,00
2646,56	412,00
2650,87	323,00
2655,18	454,00
2659,48	289,00
2663,78	423,00
2668,08	314,00
2672,37	475,00
2676,66	423,00
2680,95	496,00
2685,23	362,00
2689,50	406,00
2693,78	330,00
2698,05	537,00
2702,31	337,00
2706,57	388,00
2710,83	492,00
2715,08	493,00
2719,33	431,00
2723,58	498,00
2727,82	446,00
2732,06	461,00
2736,29	470,00
2740,53	464,00
2744,75	458,00
2748,97	537,00
2753,19	479,00
2757,41	464,00
2761,62	445,00
2765,83	479,00
2770,03	401,00
2774,23	352,00
2778,43	371,00
2782,62	396,00
2786,81	396,00
2791,00	475,00
2795,18	523,00
2799,35	469,00
2803,53	560,00
2807,70	547,00
2811,86	478,00
2816,03	545,00
2820,19	520,00
2824,34	492,00
2828,49	620,00
2832,64	630,00
2836,78	730,00
2840,92	991,00
2845,06	1322,00
2849,19	1447,00
2853,32	1535,00
2857,45	1379,00
2861,57	1339,00
2865,69	1416,00
2869,80	1354,00
2873,91	1355,00
2878,02	1368,00
2882,12	1547,00
2886,22	1564,00
2890,32	1518,00
2894,41	1448,00
2898,50	1254,00
2902,58	1229,00
2906,67	1223,00
2910,74	1194,00
2914,82	939,00
2918,89	977,00
2922,96	972,00
2927,02	981,00
2931,08	896,00
2935,13	741,00
2939,19	722,00
2943,24	794,00
2947,28	709,00
2951,32	612,00
2955,36	500,00
2959,40	443,00
2963,43	613,00
2967,46	408,00
2971,48	448,00
2975,50	456,00
2979,52	480,00
2983,53	449,00
2987,54	435,00
2991,55	370,00
2995,55	365,00
2999,55	312,00
3003,54	327,00
3007,54	298,00
3011,53	313,00
3015,51	316,00
3019,49	444,00
3023,47	265,00
3027,45	299,00
3031,42	288,00
3035,39	309,00
3039,35	286,00
3043,31	272,00
3047,27	237,00
3051,22	317,00
3055,17	346,00
3059,12	292,00
3063,06	311,00
3067,00	292,00
3070,94	265,00
3074,87	202,00
3078,80	150,00
3082,73	305,00
3086,65	227,00
3090,57	291,00
3094,49	280,00
3098,40	308,00
3102,31	242,00
3106,22	256,00
3110,12	218,00
3114,02	134,00
3117,92	272,00
3121,81	254,00
3125,70	301,00
3129,58	315,00
3133,47	230,00
3137,34	319,00
3141,22	202,00
3145,09	368,00
3148,96	143,00
3152,83	235,00
3156,69	233,00
3160,55	201,00
3164,40	193,00
3168,26	412,00
3172,10	279,00
3175,95	237,00
3179,79	261,00
3183,63	216,00
3187,47	324,00
3191,30	159,00
3195,13	211,00
3198,95	184,00
3202,78	213,00
3206,60	184,00
3210,41	149,00
3214,23	218,00
3218,03	184,00
3221,84	278,00
3225,64	202,00
3229,44	210,00
3233,24	178,00
3237,03	287,00
3240,82	227,00
3244,61	257,00
3248,39	210,00
3252,17	161,00
3255,95	238,00
3259,72	267,00
3263,49	243,00
3267,26	198,00
3271,03	285,00
3274,79	209,00
3278,54	230,00
3282,30	151,00
3286,05	193,00
3289,80	113,00
3293,54	217,00
3297,29	134,00
3301,02	286,00
3304,76	261,00
3308,49	242,00
3312,22	240,00
3315,95	212,00
3319,67	216,00
3323,39	297,00
3327,10	168,00
3330,82	292,00
3334,53	212,00
3338,24	215,00
3341,94	195,00
3345,64	247,00
3349,34	230,00
3353,03	240,00
3356,72	201,00
3360,41	151,00
3364,10	181,00
3367,78	188,00
3371,46	273,00
3375,13	237,00
3378,81	291,00
3382,48	190,00
3386,14	173,00
3389,81	236,00
3393,47	240,00
3397,12	237,00
3400,78	250,00
3404,43	155,00
3408,08	176,00
3411,72	216,00
3415,36	209,00
3419,00	213,00
3422,64	328,00
3426,27	293,00
3429,90	348,00
3433,53	220,00
3437,15	25,00
3440,77	162,00
3444,39	240,00
3448,00	263,00
3451,62	212,00
3455,22	328,00
3458,83	121,00
3462,43	187,00
3466,03	136,00
3469,63	216,00
3473,22	152,00
3476,81	244,00
3480,40	151,00
3483,99	160,00
3487,57	285,00
3491,15	190,00
3494,72	180,00
3498,29	221,00
3501,86	173,00
3505,43	95,00
3508,99	165,00
3512,56	167,00
3516,11	217,00
3519,67	140,00
3523,22	146,00
3526,77	149,00
3530,32	169,00
3533,86	233,00
3537,40	148,00
3540,94	185,00
3544,47	130,00
3548,00	157,00
3551,53	130,00
3555,06	48,00
3558,58	146,00
3562,10	159,00
3565,62	140,00
3569,13	132,00
3572,64	109,00
3576,15	146,00
3579,66	152,00
3583,16	156,00
3586,66	141,00
3590,16	140,00
3593,65	120,00
3597,14	125,00
3600,63	165,00
3604,11	204,00
3607,60	189,00
3611,08	228,00
3614,55	227,00
3618,03	204,00
3621,50	43,00
3624,97	111,00
3628,43	134,00
3631,90	145,00
3635,36	126,00
3638,81	128,00
3642,27	166,00
3645,72	191,00
3649,17	200,00
3652,61	95,00
3656,06	76,00
3659,50	134,00
3662,93	187,00
3666,37	186,00
3669,80	188,00
3673,23	200,00
3676,65	178,00
3680,08	52,00
3683,50	159,00
3686,92	203,00
3690,33	86,00
3693,74	92,00
3697,15	157,00
3700,56	107,00
3703,96	212,00
3707,36	49,00
3710,76	200,00
3714,16	158,00
3717,55	234,00
3720,94	72,00
3724,33	148,00
3727,71	91,00
3731,10	98,00
3734,48	204,00
3737,85	58,00
3741,23	146,00
3744,60	230,00
3747,97	148,00
3751,33	207,00
3754,69	139,00
3758,05	125,00
3761,41	172,00
3764,77	194,00
3768,12	83,00
3771,47	81,00
3774,82	145,00
3778,16	-4,00
3781,50	3,00
3784,84	3,00
3788,18	-1,00
>>>>>End Processed Spectral Data<<<<<
