SpectraSuite Data File
++++++++++++++++++++++++++++++++++++
Date: Wed Feb 11 17:15:44 ICT 2026
User: Administrator
Dark Spectrum Present: Yes
Reference Spectrum Present: No
Number of Sampled Component Spectra: 1
Spectrometers: MAYP113682
Integration Time (usec): 3000000 (MAYP113682)
Spectra Averaged: 1 (MAYP113682)
Boxcar Smoothing: 0 (MAYP113682)
Correct for Electrical Dark: No (MAYP113682)
Strobe/Lamp Enabled: No (MAYP113682)
Correct for Detector Non-linearity: No (MAYP113682)
Correct for Stray Light: No (MAYP113682)
Number of Pixels in Processed Spectrum: 2068
>>>>>Begin Processed Spectral Data<<<<<
-37534,58	7,00
-37414,56	7,00
-37295,11	5,00
-37176,24	1,00
-37057,95	185,00
-36940,22	49,00
-36823,05	135,00
-36706,45	187,00
-36590,40	154,00
-36474,90	134,00
-36359,95	137,00
-36245,55	174,00
-36131,68	107,00
-36018,35	171,00
-35905,55	218,00
-35793,29	142,00
-35681,54	141,00
-35570,32	269,00
-35459,62	182,00
-35349,43	131,00
-35239,75	231,00
-35130,58	196,00
-35021,91	130,00
-34913,74	114,00
-34806,07	137,00
-34698,89	107,00
-34592,20	178,00
-34486,00	136,00
-34380,28	199,00
-34275,04	99,00
-34170,27	96,00
-34065,98	116,00
-33962,16	116,00
-33858,81	228,00
-33755,92	144,00
-33653,49	30,00
-33551,52	211,00
-33450,01	65,00
-33348,94	175,00
-33248,33	100,00
-33148,16	140,00
-33048,43	210,00
-32949,14	207,00
-32850,29	118,00
-32751,87	146,00
-32653,89	75,00
-32556,33	89,00
-32459,20	148,00
-32362,49	226,00
-32266,19	57,00
-32170,32	202,00
-32074,86	109,00
-31979,82	141,00
-31885,18	118,00
-31790,95	240,00
-31697,12	191,00
-31603,69	115,00
-31510,67	98,00
-31418,04	209,00
-31325,80	213,00
-31233,95	250,00
-31142,49	155,00
-31051,42	88,00
-30960,73	229,00
-30870,43	249,00
-30780,50	170,00
-30690,95	124,00
-30601,77	229,00
-30512,97	135,00
-30424,53	182,00
-30336,46	138,00
-30248,76	163,00
-30161,42	218,00
-30074,44	176,00
-29987,81	163,00
-29901,55	162,00
-29815,63	224,00
-29730,07	172,00
-29644,86	118,00
-29560,00	130,00
-29475,48	157,00
-29391,30	113,00
-29307,47	136,00
-29223,97	145,00
-29140,81	128,00
-29057,99	189,00
-28975,50	191,00
-28893,34	121,00
-28811,51	154,00
-28730,00	209,00
-28648,82	250,00
-28567,97	224,00
-28487,43	201,00
-28407,21	125,00
-28327,32	105,00
-28247,73	209,00
-28168,46	199,00
-28089,50	174,00
-28010,85	29,00
-27932,51	153,00
-27854,48	133,00
-27776,75	98,00
-27699,32	204,00
-27622,19	198,00
-27545,37	199,00
-27468,84	176,00
-27392,60	285,00
-27316,66	61,00
-27241,01	210,00
-27165,66	163,00
-27090,59	82,00
-27015,81	145,00
-26941,31	220,00
-26867,10	119,00
-26793,17	195,00
-26719,52	193,00
-26646,15	105,00
-26573,06	156,00
-26500,24	88,00
-26427,70	158,00
-26355,43	102,00
-26283,43	166,00
-26211,71	155,00
-26140,25	273,00
-26069,06	234,00
-25998,13	104,00
-25927,46	103,00
-25857,06	146,00
-25786,92	198,00
-25717,04	63,00
-25647,42	181,00
-25578,05	221,00
-25508,94	132,00
-25440,09	137,00
-25371,48	72,00
-25303,13	144,00
-25235,02	145,00
-25167,17	244,00
-25099,56	163,00
-25032,19	176,00
-24965,07	81,00
-24898,20	192,00
-24831,56	250,00
-24765,17	182,00
-24699,01	187,00
-24633,10	148,00
-24567,41	168,00
-24501,97	88,00
-24436,75	138,00
-24371,77	96,00
-24307,03	159,00
-24242,51	129,00
-24178,22	132,00
-24114,16	162,00
-24050,32	190,00
-23986,71	163,00
-23923,32	238,00
-23860,16	127,00
-23797,22	135,00
-23734,50	86,00
-23672,00	180,00
-23609,71	161,00
-23547,65	170,00
-23485,80	219,00
-23424,16	86,00
-23362,74	181,00
-23301,53	90,00
-23240,54	172,00
-23179,75	174,00
-23119,17	165,00
-23058,80	141,00
-22998,64	105,00
-22938,68	115,00
-22878,93	192,00
-22819,39	114,00
-22760,04	144,00
-22700,90	78,00
-22641,96	131,00
-22583,22	148,00
-22524,68	47,00
-22466,33	82,00
-22408,19	127,00
-22350,23	156,00
-22292,48	197,00
-22234,92	160,00
-22177,55	126,00
-22120,37	150,00
-22063,38	248,00
-22006,58	121,00
-21949,98	90,00
-21893,56	161,00
-21837,33	120,00
-21781,28	102,00
-21725,42	175,00
-21669,74	238,00
-21614,25	163,00
-21558,94	164,00
-21503,81	161,00
-21448,86	112,00
-21394,10	104,00
-21339,51	162,00
-21285,10	203,00
-21230,86	114,00
-21176,81	148,00
-21122,93	146,00
-21069,22	208,00
-21015,69	228,00
-20962,33	140,00
-20909,14	136,00
-20856,13	212,00
-20803,28	192,00
-20750,61	139,00
-20698,10	102,00
-20645,76	182,00
-20593,59	172,00
-20541,59	151,00
-20489,75	116,00
-20438,07	156,00
-20386,56	197,00
-20335,22	161,00
-20284,03	199,00
-20233,01	226,00
-20182,15	122,00
-20131,45	170,00
-20080,91	130,00
-20030,52	110,00
-19980,30	129,00
-19930,23	91,00
-19880,32	171,00
-19830,56	121,00
-19780,96	153,00
-19731,52	100,00
-19682,23	241,00
-19633,09	-40,00
-19584,10	27,00
-19535,26	195,00
-19486,58	230,00
-19438,04	217,00
-19389,66	128,00
-19341,42	194,00
-19293,33	60,00
-19245,39	81,00
-19197,60	54,00
-19149,95	117,00
-19102,45	63,00
-19055,09	162,00
-19007,87	138,00
-18960,80	160,00
-18913,87	299,00
-18867,09	140,00
-18820,44	188,00
-18773,94	215,00
-18727,57	85,00
-18681,35	175,00
-18635,26	210,00
-18589,31	151,00
-18543,50	127,00
-18497,83	174,00
-18452,29	191,00
-18406,89	84,00
-18361,63	218,00
-18316,50	140,00
-18271,50	105,00
-18226,63	160,00
-18181,90	152,00
-18137,30	302,00
-18092,84	97,00
-18048,50	144,00
-18004,29	93,00
-17960,22	133,00
-17916,27	205,00
-17872,45	139,00
-17828,76	183,00
-17785,20	237,00
-17741,77	174,00
-17698,46	195,00
-17655,28	80,00
-17612,22	107,00
-17569,29	83,00
-17526,48	192,00
-17483,79	205,00
-17441,23	82,00
-17398,79	155,00
-17356,48	215,00
-17314,28	274,00
-17272,21	277,00
-17230,26	54,00
-17188,42	167,00
-17146,71	134,00
-17105,12	125,00
-17063,64	233,00
-17022,28	123,00
-16981,04	223,00
-16939,92	177,00
-16898,91	210,00
-16858,02	116,00
-16817,25	46,00
-16776,59	217,00
-16736,04	77,00
-16695,61	169,00
-16655,29	85,00
-16615,09	100,00
-16574,99	219,00
-16535,01	112,00
-16495,15	125,00
-16455,39	196,00
-16415,74	78,00
-16376,21	94,00
-16336,78	96,00
-16297,46	138,00
-16258,26	184,00
-16219,16	177,00
-16180,17	211,00
-16141,28	-4,00
-16102,51	142,00
-16063,84	223,00
-16025,27	182,00
-15986,82	213,00
-15948,46	120,00
-15910,22	137,00
-15872,07	172,00
-15834,04	91,00
-15796,10	149,00
-15758,27	230,00
-15720,54	135,00
-15682,91	141,00
-15645,39	197,00
-15607,97	104,00
-15570,64	185,00
-15533,42	160,00
-15496,30	17,00
-15459,28	217,00
-15422,36	190,00
-15385,54	189,00
-15348,82	241,00
-15312,19	128,00
-15275,66	186,00
-15239,23	41,00
-15202,90	219,00
-15166,67	132,00
-15130,53	173,00
-15094,48	142,00
-15058,54	176,00
-15022,68	47,00
-14986,93	349,00
-14951,26	180,00
-14915,69	109,00
-14880,22	191,00
-14844,84	133,00
-14809,55	144,00
-14774,35	37,00
-14739,25	78,00
-14704,24	69,00
-14669,32	93,00
-14634,49	113,00
-14599,75	169,00
-14565,10	102,00
-14530,55	145,00
-14496,08	84,00
-14461,70	138,00
-14427,41	78,00
-14393,21	75,00
-14359,10	124,00
-14325,07	175,00
-14291,14	60,00
-14257,29	290,00
-14223,52	147,00
-14189,85	131,00
-14156,26	195,00
-14122,76	126,00
-14089,34	159,00
-14056,01	51,00
-14022,76	103,00
-13989,60	135,00
-13956,52	186,00
-13923,53	75,00
-13890,62	107,00
-13857,79	-4,00
-13825,05	165,00
-13792,39	42,00
-13759,81	160,00
-13727,31	62,00
-13694,90	176,00
-13662,57	214,00
-13630,31	105,00
-13598,14	196,00
-13566,05	111,00
-13534,05	131,00
-13502,12	192,00
-13470,27	167,00
-13438,50	144,00
-13406,80	248,00
-13375,19	120,00
-13343,66	184,00
-13312,20	245,00
-13280,83	188,00
-13249,53	187,00
-13218,30	163,00
-13187,16	193,00
-13156,09	170,00
-13125,10	69,00
-13094,18	104,00
-13063,34	219,00
-13032,58	184,00
-13001,89	176,00
-12971,28	158,00
-12940,74	22,00
-12910,27	209,00
-12879,88	158,00
-12849,57	197,00
-12819,33	168,00
-12789,16	216,00
-12759,06	168,00
-12729,04	164,00
-12699,09	-368,00
-12669,21	220,00
-12639,41	161,00
-12609,68	154,00
-12580,02	149,00
-12550,43	116,00
-12520,91	146,00
-12491,46	106,00
-12462,08	249,00
-12432,77	48,00
-12403,54	172,00
-12374,37	276,00
-12345,27	99,00
-12316,24	236,00
-12287,29	164,00
-12258,40	148,00
-12229,57	220,00
-12200,82	219,00
-12172,14	97,00
-12143,52	208,00
-12114,97	156,00
-12086,49	190,00
-12058,07	93,00
-12029,73	144,00
-12001,44	221,00
-11973,23	260,00
-11945,08	110,00
-11917,00	160,00
-11888,98	149,00
-11861,03	124,00
-11833,15	99,00
-11805,32	130,00
-11777,57	224,00
-11749,88	294,00
-11722,25	122,00
-11694,69	233,00
-11667,19	71,00
-11639,75	182,00
-11612,38	174,00
-11585,07	69,00
-11557,83	218,00
-11530,65	90,00
-11503,53	161,00
-11476,47	206,00
-11449,48	89,00
-11422,54	187,00
-11395,67	158,00
-11368,86	179,00
-11342,11	80,00
-11315,43	223,00
-11288,80	128,00
-11262,23	225,00
-11235,73	121,00
-11209,28	219,00
-11182,90	267,00
-11156,57	212,00
-11130,31	209,00
-11104,10	186,00
-11077,96	145,00
-11051,87	163,00
-11025,84	295,00
-10999,87	176,00
-10973,96	42,00
-10948,11	128,00
-10922,31	206,00
-10896,58	195,00
-10870,90	238,00
-10845,28	209,00
-10819,71	178,00
-10794,20	200,00
-10768,75	159,00
-10743,36	138,00
-10718,02	134,00
-10692,74	137,00
-10667,52	85,00
-10642,35	187,00
-10617,24	109,00
-10592,18	196,00
-10567,18	134,00
-10542,23	200,00
-10517,34	152,00
-10492,51	179,00
-10467,72	111,00
-10443,00	140,00
-10418,32	286,00
-10393,70	88,00
-10369,14	139,00
-10344,63	185,00
-10320,17	206,00
-10295,77	272,00
-10271,42	123,00
-10247,12	342,00
-10222,88	216,00
-10198,68	252,00
-10174,54	274,00
-10150,46	225,00
-10126,42	187,00
-10102,44	242,00
-10078,51	269,00
-10054,63	133,00
-10030,80	249,00
-10007,03	287,00
-9983,30	242,00
-9959,63	308,00
-9936,01	174,00
-9912,44	273,00
-9888,92	274,00
-9865,44	368,00
-9842,02	358,00
-9818,65	325,00
-9795,33	342,00
-9772,06	354,00
-9748,84	280,00
-9725,67	310,00
-9702,55	325,00
-9679,47	521,00
-9656,45	383,00
-9633,47	333,00
-9610,55	515,00
-9587,67	447,00
-9564,84	436,00
-9542,06	607,00
-9519,32	536,00
-9496,64	627,00
-9474,00	641,00
-9451,41	668,00
-9428,87	605,00
-9406,37	688,00
-9383,92	537,00
-9361,52	574,00
-9339,17	672,00
-9316,86	817,00
-9294,60	856,00
-9272,38	858,00
-9250,21	1152,00
-9228,09	1171,00
-9206,01	1134,00
-9183,98	971,00
-9162,00	950,00
-9140,06	789,00
-9118,16	859,00
-9096,31	911,00
-9074,51	882,00
-9052,75	969,00
-9031,04	955,00
-9009,37	852,00
-8987,74	642,00
-8966,16	585,00
-8944,63	590,00
-8923,14	477,00
-8901,69	619,00
-8880,29	659,00
-8858,93	822,00
-8837,61	837,00
-8816,34	870,00
-8795,11	1018,00
-8773,92	744,00
-8752,78	665,00
-8731,68	635,00
-8710,62	731,00
-8689,61	806,00
-8668,63	740,00
-8647,70	981,00
-8626,82	892,00
-8605,97	793,00
-8585,17	813,00
-8564,41	643,00
-8543,69	682,00
-8523,01	607,00
-8502,37	638,00
-8481,78	678,00
-8461,23	821,00
-8440,71	795,00
-8420,24	997,00
-8399,81	849,00
-8379,42	892,00
-8359,08	752,00
-8338,77	735,00
-8318,50	752,00
-8298,27	668,00
-8278,09	636,00
-8257,94	769,00
-8237,83	921,00
-8217,76	778,00
-8197,74	908,00
-8177,75	913,00
-8157,80	725,00
-8137,89	763,00
-8118,02	707,00
-8098,19	672,00
-8078,40	789,00
-8058,65	709,00
-8038,93	750,00
-8019,26	667,00
-7999,62	773,00
-7980,02	707,00
-7960,46	691,00
-7940,94	538,00
-7921,46	558,00
-7902,01	592,00
-7882,60	441,00
-7863,23	665,00
-7843,90	660,00
-7824,61	613,00
-7805,35	721,00
-7786,13	644,00
-7766,95	714,00
-7747,80	733,00
-7728,69	621,00
-7709,62	573,00
-7690,59	718,00
-7671,59	764,00
-7652,63	744,00
-7633,70	692,00
-7614,81	794,00
-7595,96	623,00
-7577,15	418,00
-7558,37	645,00
-7539,62	644,00
-7520,91	614,00
-7502,24	768,00
-7483,60	818,00
-7465,00	602,00
-7446,44	548,00
-7427,91	517,00
-7409,41	406,00
-7390,95	453,00
-7372,53	402,00
-7354,14	306,00
-7335,78	492,00
-7317,46	428,00
-7299,18	491,00
-7280,92	544,00
-7262,71	651,00
-7244,52	597,00
-7226,38	692,00
-7208,26	635,00
-7190,18	613,00
-7172,14	543,00
-7154,12	516,00
-7136,15	593,00
-7118,20	517,00
-7100,29	749,00
-7082,41	709,00
-7064,57	614,00
-7046,76	562,00
-7028,98	541,00
-7011,24	392,00
-6993,53	489,00
-6975,85	334,00
-6958,20	328,00
-6940,59	292,00
-6923,01	390,00
-6905,46	491,00
-6887,94	369,00
-6870,46	3112,00
-6853,01	690,00
-6835,59	560,00
-6818,21	497,00
-6800,85	580,00
-6783,53	317,00
-6766,24	187,00
-6748,98	235,00
-6731,76	374,00
-6714,56	195,00
-6697,40	197,00
-6680,26	217,00
-6663,16	331,00
-6646,09	478,00
-6629,05	357,00
-6612,05	457,00
-6595,07	572,00
-6578,13	444,00
-6561,21	370,00
-6544,33	318,00
-6527,47	204,00
-6510,65	309,00
-6493,86	180,00
-6477,10	78,00
-6460,36	244,00
-6443,66	290,00
-6426,99	241,00
-6410,35	278,00
-6393,74	229,00
-6377,16	316,00
-6360,61	412,00
-6344,09	326,00
-6327,59	277,00
-6311,13	386,00
-6294,70	346,00
-6278,29	386,00
-6261,92	478,00
-6245,58	423,00
-6229,26	565,00
-6212,97	410,00
-6196,72	418,00
-6180,49	292,00
-6164,29	143,00
-6148,12	125,00
-6131,98	130,00
-6115,86	177,00
-6099,78	76,00
-6083,72	84,00
-6067,69	127,00
-6051,69	252,00
-6035,72	146,00
-6019,78	185,00
-6003,87	202,00
-5987,98	305,00
-5972,12	338,00
-5956,29	266,00
-5940,49	359,00
-5924,71	318,00
-5908,96	45,00
-5893,24	256,00
-5877,55	103,00
-5861,89	61,00
-5846,25	188,00
-5830,64	131,00
-5815,05	92,00
-5799,50	202,00
-5783,97	98,00
-5768,47	255,00
-5752,99	334,00
-5737,55	295,00
-5722,12	311,00
-5706,73	436,00
-5691,36	328,00
-5676,02	83,00
-5660,71	139,00
-5645,42	159,00
-5630,16	170,00
-5614,92	207,00
-5599,71	237,00
-5584,53	243,00
-5569,37	209,00
-5554,24	253,00
-5539,14	276,00
-5524,06	289,00
-5509,01	196,00
-5493,98	256,00
-5478,98	273,00
-5464,00	103,00
-5449,05	304,00
-5434,13	177,00
-5419,23	221,00
-5404,36	151,00
-5389,51	136,00
-5374,69	226,00
-5359,89	301,00
-5345,12	410,00
-5330,37	350,00
-5315,65	389,00
-5300,95	260,00
-5286,28	314,00
-5271,63	226,00
-5257,01	231,00
-5242,41	164,00
-5227,84	119,00
-5213,29	263,00
-5198,76	217,00
-5184,26	238,00
-5169,79	96,00
-5155,33	181,00
-5140,91	159,00
-5126,51	258,00
-5112,13	324,00
-5097,77	190,00
-5083,44	224,00
-5069,13	187,00
-5054,85	269,00
-5040,59	256,00
-5026,36	202,00
-5012,15	148,00
-4997,96	271,00
-4983,80	182,00
-4969,66	181,00
-4955,54	173,00
-4941,44	176,00
-4927,37	334,00
-4913,33	457,00
-4899,30	540,00
-4885,30	452,00
-4871,33	238,00
-4857,37	268,00
-4843,44	146,00
-4829,53	153,00
-4815,65	301,00
-4801,79	156,00
-4787,95	219,00
-4774,13	182,00
-4760,34	139,00
-4746,56	0,00
-4732,82	237,00
-4719,09	236,00
-4705,38	303,00
-4691,70	438,00
-4678,04	379,00
-4664,41	309,00
-4650,79	277,00
-4637,20	310,00
-4623,63	175,00
-4610,08	236,00
-4596,56	184,00
-4583,05	233,00
-4569,57	225,00
-4556,11	210,00
-4542,67	201,00
-4529,25	175,00
-4515,86	311,00
-4502,49	394,00
-4489,13	388,00
-4475,80	224,00
-4462,49	259,00
-4449,21	317,00
-4435,94	126,00
-4422,70	215,00
-4409,47	226,00
-4396,27	260,00
-4383,09	198,00
-4369,93	201,00
-4356,79	232,00
-4343,67	190,00
-4330,58	183,00
-4317,50	241,00
-4304,45	252,00
-4291,41	182,00
-4278,40	288,00
-4265,41	135,00
-4252,44	306,00
-4239,49	288,00
-4226,55	359,00
-4213,65	264,00
-4200,76	298,00
-4187,89	175,00
-4175,04	226,00
-4162,21	178,00
-4149,40	104,00
-4136,61	167,00
-4123,85	187,00
-4111,10	77,00
-4098,37	146,00
-4085,66	224,00
-4072,98	270,00
-4060,31	223,00
-4047,66	153,00
-4035,04	169,00
-4022,43	160,00
-4009,84	214,00
-3997,27	172,00
-3984,72	123,00
-3972,19	91,00
-3959,69	93,00
-3947,20	189,00
-3934,73	204,00
-3922,27	204,00
-3909,84	52,00
-3897,43	259,00
-3885,04	285,00
-3872,67	72,00
-3860,31	237,00
-3847,98	215,00
-3835,66	206,00
-3823,36	133,00
-3811,09	209,00
-3798,83	214,00
-3786,59	96,00
-3774,37	160,00
-3762,17	261,00
-3749,98	111,00
-3737,82	232,00
-3725,67	142,00
-3713,55	131,00
-3701,44	179,00
-3689,35	131,00
-3677,28	222,00
-3665,22	191,00
-3653,19	49,00
-3641,17	253,00
-3629,18	108,00
-3617,20	90,00
-3605,24	289,00
-3593,30	138,00
-3581,37	58,00
-3569,47	130,00
-3557,58	47,00
-3545,71	115,00
-3533,86	245,00
-3522,02	189,00
-3510,21	26,00
-3498,41	61,00
-3486,63	53,00
-3474,87	135,00
-3463,12	141,00
-3451,40	233,00
-3439,69	155,00
-3428,00	195,00
-3416,33	63,00
-3404,67	78,00
-3393,03	104,00
-3381,41	120,00
-3369,81	220,00
-3358,22	25,00
-3346,66	213,00
-3335,10	266,00
-3323,57	112,00
-3312,06	188,00
-3300,56	192,00
-3289,08	188,00
-3277,61	92,00
-3266,16	100,00
-3254,73	187,00
-3243,32	251,00
-3231,92	99,00
-3220,55	185,00
-3209,18	212,00
-3197,84	148,00
-3186,51	15,00
-3175,20	35,00
-3163,90	139,00
-3152,63	169,00
-3141,36	133,00
-3130,12	83,00
-3118,89	263,00
-3107,68	161,00
-3096,49	98,00
-3085,31	213,00
-3074,15	76,00
-3063,00	266,00
-3051,87	165,00
-3040,76	146,00
-3029,67	205,00
-3018,59	146,00
-3007,52	157,00
-2996,48	97,00
-2985,44	179,00
-2974,43	197,00
-2963,43	68,00
-2952,45	103,00
-2941,48	233,00
-2930,53	139,00
-2919,60	183,00
-2908,68	116,00
-2897,78	102,00
-2886,89	111,00
-2876,02	161,00
-2865,17	77,00
-2854,33	238,00
-2843,50	136,00
-2832,70	137,00
-2821,90	175,00
-2811,13	66,00
-2800,37	249,00
-2789,62	183,00
-2778,89	256,00
-2768,18	175,00
-2757,48	175,00
-2746,80	161,00
-2736,13	21,00
-2725,48	172,00
-2714,84	-6,00
-2704,22	140,00
-2693,61	173,00
-2683,02	188,00
-2672,45	154,00
-2661,89	36,00
-2651,34	199,00
-2640,81	113,00
-2630,30	213,00
-2619,80	175,00
-2609,31	161,00
-2598,84	193,00
-2588,39	166,00
-2577,95	170,00
-2567,52	74,00
-2557,11	82,00
-2546,71	117,00
-2536,33	152,00
-2525,97	107,00
-2515,62	201,00
-2505,28	161,00
-2494,96	70,00
-2484,65	46,00
-2474,36	277,00
-2464,08	219,00
-2453,82	238,00
-2443,57	166,00
-2433,33	245,00
-2423,11	52,00
-2412,91	231,00
-2402,72	136,00
-2392,54	19,00
-2382,38	248,00
-2372,23	132,00
-2362,09	-105,00
-2351,97	221,00
-2341,87	239,00
-2331,78	235,00
-2321,70	288,00
-2311,64	158,00
-2301,59	250,00
-2291,55	197,00
-2281,53	97,00
-2271,53	185,00
-2261,53	100,00
-2251,55	195,00
-2241,59	171,00
-2231,64	317,00
-2221,70	99,00
-2211,78	72,00
-2201,87	77,00
-2191,97	121,00
-2182,09	144,00
-2172,22	114,00
-2162,37	94,00
-2152,53	189,00
-2142,70	91,00
-2132,89	226,00
-2123,09	154,00
-2113,30	251,00
-2103,53	187,00
-2093,77	167,00
-2084,02	102,00
-2074,29	192,00
-2064,57	97,00
-2054,86	156,00
-2045,17	95,00
-2035,49	164,00
-2025,82	154,00
-2016,17	217,00
-2006,53	217,00
-1996,91	165,00
-1987,29	141,00
-1977,69	235,00
-1968,11	256,00
-1958,53	144,00
-1948,97	159,00
-1939,42	220,00
-1929,89	110,00
-1920,37	138,00
-1910,86	228,00
-1901,36	83,00
-1891,88	189,00
-1882,41	202,00
-1872,95	119,00
-1863,51	267,00
-1854,08	136,00
-1844,66	194,00
-1835,26	163,00
-1825,86	97,00
-1816,48	167,00
-1807,11	166,00
-1797,76	116,00
-1788,42	127,00
-1779,09	225,00
-1769,77	269,00
-1760,47	146,00
-1751,17	118,00
-1741,89	153,00
-1732,63	179,00
-1723,37	304,00
-1714,13	177,00
-1704,90	156,00
-1695,68	144,00
-1686,48	112,00
-1677,29	207,00
-1668,11	180,00
-1658,94	230,00
-1649,78	70,00
-1640,64	46,00
-1631,51	238,00
-1622,39	37,00
-1613,28	251,00
-1604,19	256,00
-1595,10	163,00
-1586,03	160,00
-1576,97	223,00
-1567,93	161,00
-1558,89	185,00
-1549,87	40,00
-1540,86	102,00
-1531,86	236,00
-1522,87	186,00
-1513,90	153,00
-1504,93	156,00
-1495,98	114,00
-1487,04	114,00
-1478,12	207,00
-1469,20	85,00
-1460,30	138,00
-1451,40	217,00
-1442,52	169,00
-1433,65	176,00
-1424,80	175,00
-1415,95	106,00
-1407,12	235,00
-1398,30	92,00
-1389,48	50,00
-1380,69	104,00
-1371,90	134,00
-1363,12	39,00
-1354,36	270,00
-1345,60	48,00
-1336,86	99,00
-1328,13	203,00
-1319,41	164,00
-1310,70	109,00
-1302,01	121,00
-1293,32	122,00
-1284,65	154,00
-1275,99	184,00
-1267,33	185,00
-1258,69	168,00
-1250,06	208,00
-1241,45	190,00
-1232,84	101,00
-1224,25	66,00
-1215,66	133,00
-1207,09	54,00
-1198,53	249,00
-1189,97	6,00
-1181,43	189,00
-1172,91	208,00
-1164,39	119,00
-1155,88	162,00
-1147,38	229,00
-1138,90	212,00
-1130,43	129,00
-1121,96	219,00
-1113,51	156,00
-1105,07	160,00
-1096,64	175,00
-1088,22	180,00
-1079,81	192,00
-1071,41	139,00
-1063,02	147,00
-1054,65	144,00
-1046,28	111,00
-1037,92	165,00
-1029,58	38,00
-1021,24	127,00
-1012,92	244,00
-1004,61	147,00
-996,30	312,00
-988,01	197,00
-979,73	169,00
-971,46	240,00
-963,20	95,00
-954,95	208,00
-946,71	138,00
-938,48	8,00
-930,26	60,00
-922,06	144,00
-913,86	222,00
-905,67	163,00
-897,49	316,00
-889,33	38,00
-881,17	123,00
-873,02	302,00
-864,89	48,00
-856,76	159,00
-848,65	264,00
-840,54	231,00
-832,45	264,00
-824,36	115,00
-816,29	204,00
-808,22	155,00
-800,17	69,00
-792,12	257,00
-784,09	158,00
-776,06	172,00
-768,05	169,00
-760,04	194,00
-752,05	167,00
-744,07	156,00
-736,09	142,00
-728,13	287,00
-720,17	113,00
-712,23	94,00
-704,29	238,00
-696,37	135,00
-688,45	122,00
-680,55	170,00
-672,65	182,00
-664,77	206,00
-656,89	179,00
-649,03	108,00
-641,17	112,00
-633,32	213,00
-625,49	238,00
-617,66	94,00
-609,84	177,00
-602,03	213,00
-594,23	156,00
-586,45	247,00
-578,67	194,00
-570,90	137,00
-563,14	176,00
-555,39	177,00
-547,65	228,00
-539,91	78,00
-532,19	259,00
-524,48	79,00
-516,78	148,00
-509,08	159,00
-501,40	180,00
-493,72	149,00
-486,06	226,00
-478,40	173,00
-470,76	196,00
-463,12	109,00
-455,49	188,00
-447,87	126,00
-440,26	158,00
-432,66	117,00
-425,07	205,00
-417,49	191,00
-409,92	132,00
-402,35	151,00
-394,80	236,00
-387,25	226,00
-379,72	265,00
-372,19	228,00
-364,67	304,00
-357,17	212,00
-349,67	322,00
-342,18	289,00
-334,69	304,00
-327,22	332,00
-319,76	270,00
-312,30	298,00
-304,86	274,00
-297,42	239,00
-290,00	274,00
-282,58	276,00
-275,17	328,00
-267,77	226,00
-260,37	222,00
-252,99	197,00
-245,62	392,00
-238,25	301,00
-230,90	350,00
-223,55	368,00
-216,21	416,00
-208,88	430,00
-201,56	390,00
-194,25	426,00
-186,94	622,00
-179,65	572,00
-172,36	675,00
-165,08	649,00
-157,81	797,00
-150,55	590,00
-143,30	867,00
-136,06	819,00
-128,82	1018,00
-121,60	1109,00
-114,38	1226,00
-107,17	1329,00
-99,97	1403,00
-92,78	1703,00
-85,60	1830,00
-78,42	2209,00
-71,25	2593,00
-64,10	2787,00
-56,95	3322,00
-49,81	4068,00
-42,67	4865,00
-35,55	6024,00
-28,43	8022,00
-21,33	13057,00
-14,23	40253,00
-7,14	56043,00
-0,05	55763,00
7,02	55513,00
14,09	55717,00
21,14	39860,00
28,19	17403,00
35,23	10760,00
42,27	8007,00
49,29	6588,00
56,31	5474,00
63,32	4630,00
70,32	3820,00
77,31	3304,00
84,29	2792,00
91,27	2525,00
98,23	2282,00
105,19	2111,00
112,14	1882,00
119,09	2167,00
126,02	2814,00
132,95	3048,00
139,87	2912,00
146,78	2772,00
153,68	2881,00
160,58	2524,00
167,46	2542,00
174,34	2525,00
181,21	2464,00
188,08	2337,00
194,93	2332,00
201,78	2428,00
208,62	2413,00
215,45	2301,00
222,27	2348,00
229,09	2260,00
235,90	2231,00
242,70	2132,00
249,49	2301,00
256,27	2112,00
263,05	2146,00
269,82	2121,00
276,58	2118,00
283,33	1969,00
290,08	2056,00
296,82	1892,00
303,55	1997,00
310,27	2045,00
316,98	1877,00
323,69	1783,00
330,39	1827,00
337,08	1978,00
343,76	1875,00
350,44	1843,00
357,11	1898,00
363,77	1732,00
370,42	1845,00
377,07	1671,00
383,71	1853,00
390,34	1852,00
396,96	1824,00
403,58	1857,00
410,19	1902,00
416,79	1964,00
423,38	1993,00
429,97	1892,00
436,55	1668,00
443,12	1676,00
449,68	1608,00
456,24	1716,00
462,79	1616,00
469,33	1528,00
475,86	1523,00
482,39	1582,00
488,91	1587,00
495,42	1535,00
501,93	1526,00
508,42	1474,00
514,91	1530,00
521,40	1408,00
527,87	1467,00
534,34	1391,00
540,80	1456,00
547,25	1393,00
553,70	1319,00
560,14	1412,00
566,57	1469,00
573,00	1359,00
579,41	1409,00
585,83	1421,00
592,23	1429,00
598,62	1336,00
605,01	1324,00
611,40	1394,00
617,77	1398,00
624,14	1296,00
630,50	1355,00
636,85	1460,00
643,20	1320,00
649,54	1291,00
655,87	1316,00
662,20	1280,00
668,52	1355,00
674,83	1372,00
681,13	1312,00
687,43	1251,00
693,72	1289,00
700,00	1220,00
706,28	1232,00
712,55	1270,00
718,81	1247,00
725,07	1283,00
731,32	1394,00
737,56	1344,00
743,79	1353,00
750,02	1340,00
756,24	1300,00
762,46	1272,00
768,67	1350,00
774,87	1204,00
781,06	1434,00
787,25	1195,00
793,43	1308,00
799,60	1324,00
805,77	1314,00
811,93	1283,00
818,08	1280,00
824,23	1350,00
830,37	1341,00
836,50	1217,00
842,63	1322,00
848,75	1385,00
854,87	1296,00
860,97	1314,00
867,07	1297,00
873,17	1290,00
879,25	1261,00
885,33	1268,00
891,41	1290,00
897,47	1195,00
903,53	1254,00
909,59	1120,00
915,63	1218,00
921,67	1319,00
927,71	1193,00
933,74	1106,00
939,76	1236,00
945,77	1228,00
951,78	1264,00
957,78	1119,00
963,78	1196,00
969,77	1150,00
975,75	1132,00
981,72	1067,00
987,69	1328,00
993,66	1086,00
999,61	1197,00
1005,56	1132,00
1011,51	1138,00
1017,44	1163,00
1023,37	1139,00
1029,30	1110,00
1035,22	1240,00
1041,13	1130,00
1047,03	1311,00
1052,93	1249,00
1058,83	1493,00
1064,71	1672,00
1070,59	1514,00
1076,47	1342,00
1082,33	1254,00
1088,20	1235,00
1094,05	1045,00
1099,90	1182,00
1105,74	992,00
1111,58	1265,00
1117,41	1205,00
1123,23	1359,00
1129,05	1526,00
1134,86	1352,00
1140,67	1204,00
1146,47	1154,00
1152,26	1119,00
1158,05	1126,00
1163,83	1063,00
1169,60	1199,00
1175,37	1027,00
1181,13	1131,00
1186,89	1079,00
1192,64	1021,00
1198,38	1043,00
1204,12	1108,00
1209,85	994,00
1215,58	873,00
1221,30	1102,00
1227,02	1039,00
1232,72	1119,00
1238,43	1131,00
1244,12	1060,00
1249,81	1119,00
1255,50	1131,00
1261,17	1139,00
1266,85	1086,00
1272,51	1171,00
1278,17	1064,00
1283,83	1380,00
1289,47	1536,00
1295,12	1816,00
1300,75	1725,00
1306,38	1554,00
1312,01	1325,00
1317,63	1261,00
1323,24	1260,00
1328,85	1240,00
1334,45	1288,00
1340,04	1190,00
1345,63	1207,00
1351,22	1344,00
1356,80	1260,00
1362,37	1233,00
1367,93	1323,00
1373,49	1328,00
1379,05	1418,00
1384,60	1224,00
1390,14	1271,00
1395,68	1268,00
1401,21	1280,00
1406,74	1365,00
1412,26	1315,00
1417,77	1536,00
1423,28	1575,00
1428,78	1632,00
1434,28	1804,00
1439,77	2139,00
1445,26	1923,00
1450,74	1929,00
1456,22	1850,00
1461,68	1713,00
1467,15	1665,00
1472,61	1580,00
1478,06	1403,00
1483,51	1234,00
1488,95	1178,00
1494,38	1188,00
1499,81	1166,00
1505,24	1148,00
1510,65	1110,00
1516,07	1049,00
1521,48	992,00
1526,88	1109,00
1532,27	1042,00
1537,67	944,00
1543,05	1125,00
1548,43	1072,00
1553,81	1075,00
1559,18	853,00
1564,54	1034,00
1569,90	1073,00
1575,25	1068,00
1580,60	926,00
1585,94	998,00
1591,28	910,00
1596,61	1010,00
1601,93	1039,00
1607,25	886,00
1612,57	985,00
1617,88	989,00
1623,18	1113,00
1628,48	1003,00
1633,77	1103,00
1639,06	1094,00
1644,34	857,00
1649,62	898,00
1654,89	1016,00
1660,16	861,00
1665,42	1019,00
1670,67	986,00
1675,92	948,00
1681,17	931,00
1686,41	909,00
1691,64	949,00
1696,87	967,00
1702,10	862,00
1707,32	922,00
1712,53	883,00
1717,74	776,00
1722,94	979,00
1728,14	944,00
1733,33	848,00
1738,52	839,00
1743,70	853,00
1748,88	938,00
1754,05	724,00
1759,22	841,00
1764,38	1000,00
1769,53	900,00
1774,69	714,00
1779,83	817,00
1784,97	900,00
1790,11	864,00
1795,24	813,00
1800,36	687,00
1805,48	830,00
1810,60	806,00
1815,71	679,00
1820,82	725,00
1825,92	740,00
1831,01	745,00
1836,10	835,00
1841,19	733,00
1846,26	590,00
1851,34	616,00
1856,41	742,00
1861,47	745,00
1866,53	738,00
1871,59	698,00
1876,64	690,00
1881,68	636,00
1886,72	760,00
1891,76	712,00
1896,79	783,00
1901,81	624,00
1906,83	760,00
1911,85	578,00
1916,86	718,00
1921,86	646,00
1926,86	674,00
1931,86	581,00
1936,85	570,00
1941,83	637,00
1946,81	624,00
1951,79	786,00
1956,76	724,00
1961,72	559,00
1966,68	619,00
1971,64	559,00
1976,59	546,00
1981,54	664,00
1986,48	690,00
1991,42	623,00
1996,35	630,00
2001,27	608,00
2006,20	558,00
2011,11	543,00
2016,03	598,00
2020,93	546,00
2025,84	522,00
2030,73	657,00
2035,63	590,00
2040,52	538,00
2045,40	529,00
2050,28	536,00
2055,15	568,00
2060,02	551,00
2064,89	597,00
2069,75	456,00
2074,60	586,00
2079,46	525,00
2084,30	534,00
2089,14	520,00
2093,98	364,00
2098,81	574,00
2103,64	707,00
2108,46	519,00
2113,28	622,00
2118,09	494,00
2122,90	725,00
2127,70	565,00
2132,50	677,00
2137,30	434,00
2142,09	534,00
2146,87	589,00
2151,66	602,00
2156,43	518,00
2161,20	659,00
2165,97	429,00
2170,73	522,00
2175,49	499,00
2180,24	520,00
2184,99	603,00
2189,74	526,00
2194,48	503,00
2199,21	590,00
2203,94	423,00
2208,67	597,00
2213,39	481,00
2218,11	544,00
2222,82	473,00
2227,53	481,00
2232,23	469,00
2236,93	622,00
2241,63	497,00
2246,32	622,00
2251,00	466,00
2255,68	539,00
2260,36	492,00
2265,03	522,00
2269,70	525,00
2274,36	473,00
2279,02	566,00
2283,68	457,00
2288,33	489,00
2292,97	566,00
2297,61	489,00
2302,25	372,00
2306,88	397,00
2311,51	330,00
2316,14	419,00
2320,75	380,00
2325,37	453,00
2329,98	427,00
2334,59	500,00
2339,19	405,00
2343,79	294,00
2348,38	455,00
2352,97	386,00
2357,55	487,00
2362,13	540,00
2366,71	365,00
2371,28	530,00
2375,85	437,00
2380,41	535,00
2384,97	443,00
2389,52	443,00
2394,07	469,00
2398,62	341,00
2403,16	453,00
2407,70	389,00
2412,23	404,00
2416,76	579,00
2421,29	340,00
2425,81	338,00
2430,32	432,00
2434,84	348,00
2439,34	421,00
2443,85	498,00
2448,35	457,00
2452,84	395,00
2457,33	366,00
2461,82	406,00
2466,30	475,00
2470,78	341,00
2475,25	366,00
2479,72	333,00
2484,19	437,00
2488,65	353,00
2493,11	403,00
2497,56	457,00
2502,01	375,00
2506,46	300,00
2510,90	297,00
2515,34	325,00
2519,77	471,00
2524,20	423,00
2528,62	348,00
2533,04	300,00
2537,46	371,00
2541,87	393,00
2546,28	380,00
2550,68	327,00
2555,08	348,00
2559,48	359,00
2563,87	450,00
2568,26	387,00
2572,64	368,00
2577,02	452,00
2581,40	464,00
2585,77	339,00
2590,14	428,00
2594,50	430,00
2598,86	346,00
2603,22	342,00
2607,57	277,00
2611,92	308,00
2616,26	395,00
2620,60	390,00
2624,94	416,00
2629,27	274,00
2633,60	436,00
2637,92	426,00
2642,24	297,00
2646,56	324,00
2650,87	348,00
2655,18	412,00
2659,48	313,00
2663,78	348,00
2668,08	333,00
2672,37	461,00
2676,66	344,00
2680,95	422,00
2685,23	434,00
2689,50	314,00
2693,78	334,00
2698,05	492,00
2702,31	351,00
2706,57	441,00
2710,83	366,00
2715,08	526,00
2719,33	387,00
2723,58	324,00
2727,82	363,00
2732,06	435,00
2736,29	375,00
2740,53	400,00
2744,75	409,00
2748,97	546,00
2753,19	575,00
2757,41	490,00
2761,62	463,00
2765,83	424,00
2770,03	315,00
2774,23	353,00
2778,43	411,00
2782,62	411,00
2786,81	324,00
2791,00	429,00
2795,18	483,00
2799,35	387,00
2803,53	524,00
2807,70	482,00
2811,86	471,00
2816,03	574,00
2820,19	468,00
2824,34	551,00
2828,49	620,00
2832,64	594,00
2836,78	744,00
2840,92	903,00
2845,06	1169,00
2849,19	1353,00
2853,32	1315,00
2857,45	1313,00
2861,57	1295,00
2865,69	1215,00
2869,80	1240,00
2873,91	1182,00
2878,02	1389,00
2882,12	1453,00
2886,22	1386,00
2890,32	1355,00
2894,41	1270,00
2898,50	1081,00
2902,58	1142,00
2906,67	1185,00
2910,74	1144,00
2914,82	935,00
2918,89	915,00
2922,96	904,00
2927,02	808,00
2931,08	843,00
2935,13	758,00
2939,19	693,00
2943,24	696,00
2947,28	634,00
2951,32	573,00
2955,36	489,00
2959,40	427,00
2963,43	495,00
2967,46	406,00
2971,48	435,00
2975,50	457,00
2979,52	410,00
2983,53	460,00
2987,54	253,00
2991,55	308,00
2995,55	408,00
2999,55	337,00
3003,54	348,00
3007,54	290,00
3011,53	245,00
3015,51	285,00
3019,49	381,00
3023,47	269,00
3027,45	242,00
3031,42	334,00
3035,39	274,00
3039,35	257,00
3043,31	147,00
3047,27	282,00
3051,22	234,00
3055,17	332,00
3059,12	222,00
3063,06	273,00
3067,00	285,00
3070,94	199,00
3074,87	207,00
3078,80	202,00
3082,73	313,00
3086,65	247,00
3090,57	217,00
3094,49	257,00
3098,40	129,00
3102,31	160,00
3106,22	186,00
3110,12	258,00
3114,02	135,00
3117,92	154,00
3121,81	302,00
3125,70	240,00
3129,58	202,00
3133,47	132,00
3137,34	230,00
3141,22	192,00
3145,09	267,00
3148,96	234,00
3152,83	274,00
3156,69	187,00
3160,55	223,00
3164,40	256,00
3168,26	366,00
3172,10	275,00
3175,95	271,00
3179,79	218,00
3183,63	280,00
3187,47	244,00
3191,30	108,00
3195,13	114,00
3198,95	209,00
3202,78	248,00
3206,60	154,00
3210,41	196,00
3214,23	225,00
3218,03	244,00
3221,84	161,00
3225,64	301,00
3229,44	196,00
3233,24	233,00
3237,03	219,00
3240,82	168,00
3244,61	217,00
3248,39	240,00
3252,17	298,00
3255,95	261,00
3259,72	218,00
3263,49	211,00
3267,26	192,00
3271,03	266,00
3274,79	202,00
3278,54	166,00
3282,30	105,00
3286,05	376,00
3289,80	155,00
3293,54	244,00
3297,29	275,00
3301,02	286,00
3304,76	227,00
3308,49	216,00
3312,22	257,00
3315,95	190,00
3319,67	220,00
3323,39	266,00
3327,10	124,00
3330,82	322,00
3334,53	219,00
3338,24	235,00
3341,94	155,00
3345,64	240,00
3349,34	180,00
3353,03	217,00
3356,72	244,00
3360,41	282,00
3364,10	242,00
3367,78	242,00
3371,46	207,00
3375,13	193,00
3378,81	314,00
3382,48	214,00
3386,14	150,00
3389,81	228,00
3393,47	206,00
3397,12	208,00
3400,78	206,00
3404,43	271,00
3408,08	177,00
3411,72	275,00
3415,36	244,00
3419,00	224,00
3422,64	249,00
3426,27	222,00
3429,90	301,00
3433,53	125,00
3437,15	136,00
3440,77	107,00
3444,39	137,00
3448,00	277,00
3451,62	184,00
3455,22	211,00
3458,83	180,00
3462,43	170,00
3466,03	111,00
3469,63	122,00
3473,22	198,00
3476,81	219,00
3480,40	130,00
3483,99	225,00
3487,57	212,00
3491,15	148,00
3494,72	157,00
3498,29	178,00
3501,86	197,00
3505,43	90,00
3508,99	93,00
3512,56	197,00
3516,11	195,00
3519,67	130,00
3523,22	172,00
3526,77	135,00
3530,32	200,00
3533,86	136,00
3537,40	95,00
3540,94	142,00
3544,47	161,00
3548,00	149,00
3551,53	167,00
3555,06	88,00
3558,58	79,00
3562,10	190,00
3565,62	174,00
3569,13	85,00
3572,64	173,00
3576,15	232,00
3579,66	103,00
3583,16	218,00
3586,66	115,00
3590,16	158,00
3593,65	64,00
3597,14	139,00
3600,63	214,00
3604,11	108,00
3607,60	143,00
3611,08	33,00
3614,55	197,00
3618,03	136,00
3621,50	67,00
3624,97	147,00
3628,43	151,00
3631,90	221,00
3635,36	196,00
3638,81	130,00
3642,27	141,00
3645,72	146,00
3649,17	114,00
3652,61	145,00
3656,06	123,00
3659,50	109,00
3662,93	126,00
3666,37	117,00
3669,80	101,00
3673,23	180,00
3676,65	227,00
3680,08	121,00
3683,50	113,00
3686,92	158,00
3690,33	171,00
3693,74	154,00
3697,15	135,00
3700,56	160,00
3703,96	208,00
3707,36	78,00
3710,76	174,00
3714,16	201,00
3717,55	161,00
3720,94	193,00
3724,33	166,00
3727,71	97,00
3731,10	99,00
3734,48	214,00
3737,85	110,00
3741,23	50,00
3744,60	189,00
3747,97	135,00
3751,33	131,00
3754,69	190,00
3758,05	37,00
3761,41	127,00
3764,77	214,00
3768,12	96,00
3771,47	153,00
3774,82	122,00
3778,16	3,00
3781,50	8,00
3784,84	3,00
3788,18	2,00
>>>>>End Processed Spectral Data<<<<<
