SpectraSuite Data File
++++++++++++++++++++++++++++++++++++
Date: Wed Feb 11 17:06:20 ICT 2026
User: Administrator
Dark Spectrum Present: Yes
Reference Spectrum Present: No
Number of Sampled Component Spectra: 1
Spectrometers: MAYP113682
Integration Time (usec): 3000000 (MAYP113682)
Spectra Averaged: 1 (MAYP113682)
Boxcar Smoothing: 0 (MAYP113682)
Correct for Electrical Dark: No (MAYP113682)
Strobe/Lamp Enabled: No (MAYP113682)
Correct for Detector Non-linearity: No (MAYP113682)
Correct for Stray Light: No (MAYP113682)
Number of Pixels in Processed Spectrum: 2068
>>>>>Begin Processed Spectral Data<<<<<
-37534,58	8,00
-37414,56	-1,00
-37295,11	-1,00
-37176,24	2,00
-37057,95	181,00
-36940,22	68,00
-36823,05	9,00
-36706,45	137,00
-36590,40	77,00
-36474,90	7,00
-36359,95	113,00
-36245,55	42,00
-36131,68	14,00
-36018,35	122,00
-35905,55	161,00
-35793,29	105,00
-35681,54	120,00
-35570,32	94,00
-35459,62	110,00
-35349,43	68,00
-35239,75	147,00
-35130,58	66,00
-35021,91	42,00
-34913,74	13,00
-34806,07	67,00
-34698,89	-10,00
-34592,20	80,00
-34486,00	84,00
-34380,28	153,00
-34275,04	-4,00
-34170,27	-45,00
-34065,98	54,00
-33962,16	79,00
-33858,81	132,00
-33755,92	40,00
-33653,49	60,00
-33551,52	72,00
-33450,01	-22,00
-33348,94	85,00
-33248,33	65,00
-33148,16	57,00
-33048,43	58,00
-32949,14	55,00
-32850,29	50,00
-32751,87	106,00
-32653,89	-17,00
-32556,33	-12,00
-32459,20	94,00
-32362,49	150,00
-32266,19	61,00
-32170,32	51,00
-32074,86	163,00
-31979,82	110,00
-31885,18	100,00
-31790,95	121,00
-31697,12	61,00
-31603,69	80,00
-31510,67	73,00
-31418,04	205,00
-31325,80	62,00
-31233,95	218,00
-31142,49	13,00
-31051,42	-1,00
-30960,73	48,00
-30870,43	53,00
-30780,50	78,00
-30690,95	104,00
-30601,77	113,00
-30512,97	-14,00
-30424,53	145,00
-30336,46	17,00
-30248,76	42,00
-30161,42	97,00
-30074,44	66,00
-29987,81	-35,00
-29901,55	153,00
-29815,63	169,00
-29730,07	105,00
-29644,86	46,00
-29560,00	-16,00
-29475,48	39,00
-29391,30	-16,00
-29307,47	46,00
-29223,97	126,00
-29140,81	9,00
-29057,99	99,00
-28975,50	116,00
-28893,34	49,00
-28811,51	20,00
-28730,00	138,00
-28648,82	164,00
-28567,97	109,00
-28487,43	51,00
-28407,21	91,00
-28327,32	81,00
-28247,73	102,00
-28168,46	119,00
-28089,50	21,00
-28010,85	-19,00
-27932,51	102,00
-27854,48	137,00
-27776,75	62,00
-27699,32	91,00
-27622,19	147,00
-27545,37	30,00
-27468,84	42,00
-27392,60	111,00
-27316,66	16,00
-27241,01	94,00
-27165,66	58,00
-27090,59	50,00
-27015,81	7,00
-26941,31	97,00
-26867,10	125,00
-26793,17	82,00
-26719,52	68,00
-26646,15	34,00
-26573,06	86,00
-26500,24	56,00
-26427,70	93,00
-26355,43	79,00
-26283,43	129,00
-26211,71	8,00
-26140,25	106,00
-26069,06	157,00
-25998,13	124,00
-25927,46	45,00
-25857,06	46,00
-25786,92	49,00
-25717,04	51,00
-25647,42	160,00
-25578,05	126,00
-25508,94	-10,00
-25440,09	73,00
-25371,48	-47,00
-25303,13	92,00
-25235,02	110,00
-25167,17	207,00
-25099,56	78,00
-25032,19	36,00
-24965,07	61,00
-24898,20	75,00
-24831,56	82,00
-24765,17	102,00
-24699,01	56,00
-24633,10	86,00
-24567,41	97,00
-24501,97	106,00
-24436,75	-17,00
-24371,77	40,00
-24307,03	141,00
-24242,51	43,00
-24178,22	82,00
-24114,16	9,00
-24050,32	163,00
-23986,71	84,00
-23923,32	120,00
-23860,16	-48,00
-23797,22	31,00
-23734,50	59,00
-23672,00	28,00
-23609,71	74,00
-23547,65	125,00
-23485,80	105,00
-23424,16	123,00
-23362,74	17,00
-23301,53	-39,00
-23240,54	54,00
-23179,75	39,00
-23119,17	67,00
-23058,80	130,00
-22998,64	32,00
-22938,68	122,00
-22878,93	111,00
-22819,39	28,00
-22760,04	110,00
-22700,90	58,00
-22641,96	56,00
-22583,22	61,00
-22524,68	122,00
-22466,33	22,00
-22408,19	88,00
-22350,23	38,00
-22292,48	110,00
-22234,92	30,00
-22177,55	-41,00
-22120,37	53,00
-22063,38	97,00
-22006,58	125,00
-21949,98	116,00
-21893,56	70,00
-21837,33	76,00
-21781,28	74,00
-21725,42	58,00
-21669,74	146,00
-21614,25	99,00
-21558,94	31,00
-21503,81	21,00
-21448,86	-8,00
-21394,10	156,00
-21339,51	54,00
-21285,10	-1,00
-21230,86	69,00
-21176,81	104,00
-21122,93	81,00
-21069,22	-29,00
-21015,69	177,00
-20962,33	30,00
-20909,14	51,00
-20856,13	138,00
-20803,28	140,00
-20750,61	171,00
-20698,10	46,00
-20645,76	62,00
-20593,59	114,00
-20541,59	148,00
-20489,75	135,00
-20438,07	203,00
-20386,56	165,00
-20335,22	88,00
-20284,03	77,00
-20233,01	112,00
-20182,15	49,00
-20131,45	54,00
-20080,91	115,00
-20030,52	97,00
-19980,30	-13,00
-19930,23	72,00
-19880,32	112,00
-19830,56	58,00
-19780,96	84,00
-19731,52	126,00
-19682,23	136,00
-19633,09	-102,00
-19584,10	54,00
-19535,26	117,00
-19486,58	201,00
-19438,04	148,00
-19389,66	91,00
-19341,42	67,00
-19293,33	-5,00
-19245,39	21,00
-19197,60	9,00
-19149,95	59,00
-19102,45	83,00
-19055,09	93,00
-19007,87	94,00
-18960,80	163,00
-18913,87	211,00
-18867,09	41,00
-18820,44	55,00
-18773,94	170,00
-18727,57	5,00
-18681,35	96,00
-18635,26	90,00
-18589,31	103,00
-18543,50	118,00
-18497,83	5,00
-18452,29	52,00
-18406,89	-3,00
-18361,63	99,00
-18316,50	27,00
-18271,50	63,00
-18226,63	48,00
-18181,90	49,00
-18137,30	237,00
-18092,84	23,00
-18048,50	128,00
-18004,29	111,00
-17960,22	66,00
-17916,27	53,00
-17872,45	99,00
-17828,76	51,00
-17785,20	17,00
-17741,77	100,00
-17698,46	66,00
-17655,28	90,00
-17612,22	10,00
-17569,29	72,00
-17526,48	137,00
-17483,79	113,00
-17441,23	-37,00
-17398,79	43,00
-17356,48	154,00
-17314,28	101,00
-17272,21	144,00
-17230,26	20,00
-17188,42	126,00
-17146,71	67,00
-17105,12	114,00
-17063,64	118,00
-17022,28	42,00
-16981,04	124,00
-16939,92	42,00
-16898,91	70,00
-16858,02	7,00
-16817,25	-47,00
-16776,59	93,00
-16736,04	16,00
-16695,61	134,00
-16655,29	38,00
-16615,09	-18,00
-16574,99	90,00
-16535,01	90,00
-16495,15	93,00
-16455,39	120,00
-16415,74	67,00
-16376,21	71,00
-16336,78	119,00
-16297,46	57,00
-16258,26	188,00
-16219,16	91,00
-16180,17	62,00
-16141,28	15,00
-16102,51	86,00
-16063,84	82,00
-16025,27	123,00
-15986,82	24,00
-15948,46	184,00
-15910,22	102,00
-15872,07	126,00
-15834,04	50,00
-15796,10	74,00
-15758,27	118,00
-15720,54	90,00
-15682,91	188,00
-15645,39	125,00
-15607,97	49,00
-15570,64	161,00
-15533,42	86,00
-15496,30	46,00
-15459,28	18,00
-15422,36	128,00
-15385,54	56,00
-15348,82	152,00
-15312,19	34,00
-15275,66	118,00
-15239,23	20,00
-15202,90	94,00
-15166,67	-4,00
-15130,53	84,00
-15094,48	157,00
-15058,54	78,00
-15022,68	179,00
-14986,93	222,00
-14951,26	79,00
-14915,69	133,00
-14880,22	123,00
-14844,84	38,00
-14809,55	180,00
-14774,35	15,00
-14739,25	39,00
-14704,24	-41,00
-14669,32	121,00
-14634,49	22,00
-14599,75	27,00
-14565,10	51,00
-14530,55	14,00
-14496,08	11,00
-14461,70	99,00
-14427,41	27,00
-14393,21	52,00
-14359,10	21,00
-14325,07	-35,00
-14291,14	79,00
-14257,29	72,00
-14223,52	55,00
-14189,85	9,00
-14156,26	70,00
-14122,76	103,00
-14089,34	-14,00
-14056,01	-21,00
-14022,76	-62,00
-13989,60	-16,00
-13956,52	57,00
-13923,53	58,00
-13890,62	39,00
-13857,79	-14,00
-13825,05	0,00
-13792,39	109,00
-13759,81	118,00
-13727,31	49,00
-13694,90	36,00
-13662,57	146,00
-13630,31	32,00
-13598,14	141,00
-13566,05	42,00
-13534,05	62,00
-13502,12	118,00
-13470,27	175,00
-13438,50	63,00
-13406,80	140,00
-13375,19	8,00
-13343,66	65,00
-13312,20	140,00
-13280,83	75,00
-13249,53	83,00
-13218,30	26,00
-13187,16	113,00
-13156,09	118,00
-13125,10	64,00
-13094,18	34,00
-13063,34	121,00
-13032,58	50,00
-13001,89	64,00
-12971,28	17,00
-12940,74	13,00
-12910,27	69,00
-12879,88	35,00
-12849,57	91,00
-12819,33	103,00
-12789,16	210,00
-12759,06	-7,00
-12729,04	68,00
-12699,09	14,00
-12669,21	178,00
-12639,41	36,00
-12609,68	70,00
-12580,02	90,00
-12550,43	-10,00
-12520,91	-15,00
-12491,46	93,00
-12462,08	46,00
-12432,77	28,00
-12403,54	125,00
-12374,37	139,00
-12345,27	-21,00
-12316,24	86,00
-12287,29	59,00
-12258,40	81,00
-12229,57	169,00
-12200,82	90,00
-12172,14	137,00
-12143,52	162,00
-12114,97	24,00
-12086,49	89,00
-12058,07	107,00
-12029,73	135,00
-12001,44	93,00
-11973,23	102,00
-11945,08	134,00
-11917,00	43,00
-11888,98	160,00
-11861,03	84,00
-11833,15	20,00
-11805,32	45,00
-11777,57	42,00
-11749,88	205,00
-11722,25	77,00
-11694,69	27,00
-11667,19	-2,00
-11639,75	82,00
-11612,38	72,00
-11585,07	-27,00
-11557,83	90,00
-11530,65	68,00
-11503,53	19,00
-11476,47	43,00
-11449,48	-26,00
-11422,54	81,00
-11395,67	76,00
-11368,86	21,00
-11342,11	61,00
-11315,43	148,00
-11288,80	44,00
-11262,23	106,00
-11235,73	36,00
-11209,28	163,00
-11182,90	116,00
-11156,57	121,00
-11130,31	80,00
-11104,10	104,00
-11077,96	122,00
-11051,87	85,00
-11025,84	121,00
-10999,87	67,00
-10973,96	-8,00
-10948,11	112,00
-10922,31	80,00
-10896,58	133,00
-10870,90	19,00
-10845,28	113,00
-10819,71	108,00
-10794,20	75,00
-10768,75	138,00
-10743,36	25,00
-10718,02	120,00
-10692,74	49,00
-10667,52	32,00
-10642,35	92,00
-10617,24	131,00
-10592,18	134,00
-10567,18	56,00
-10542,23	90,00
-10517,34	76,00
-10492,51	84,00
-10467,72	141,00
-10443,00	46,00
-10418,32	160,00
-10393,70	44,00
-10369,14	75,00
-10344,63	190,00
-10320,17	226,00
-10295,77	79,00
-10271,42	33,00
-10247,12	190,00
-10222,88	218,00
-10198,68	207,00
-10174,54	207,00
-10150,46	191,00
-10126,42	250,00
-10102,44	173,00
-10078,51	215,00
-10054,63	128,00
-10030,80	208,00
-10007,03	233,00
-9983,30	196,00
-9959,63	310,00
-9936,01	167,00
-9912,44	231,00
-9888,92	304,00
-9865,44	226,00
-9842,02	265,00
-9818,65	368,00
-9795,33	392,00
-9772,06	332,00
-9748,84	205,00
-9725,67	257,00
-9702,55	345,00
-9679,47	483,00
-9656,45	428,00
-9633,47	388,00
-9610,55	450,00
-9587,67	524,00
-9564,84	597,00
-9542,06	795,00
-9519,32	637,00
-9496,64	758,00
-9474,00	800,00
-9451,41	854,00
-9428,87	838,00
-9406,37	871,00
-9383,92	599,00
-9361,52	716,00
-9339,17	794,00
-9316,86	928,00
-9294,60	1110,00
-9272,38	1222,00
-9250,21	1392,00
-9228,09	1539,00
-9206,01	1466,00
-9183,98	1300,00
-9162,00	1150,00
-9140,06	1093,00
-9118,16	1131,00
-9096,31	1102,00
-9074,51	1372,00
-9052,75	1412,00
-9031,04	1297,00
-9009,37	1113,00
-8987,74	883,00
-8966,16	794,00
-8944,63	844,00
-8923,14	777,00
-8901,69	725,00
-8880,29	924,00
-8858,93	1025,00
-8837,61	1112,00
-8816,34	1241,00
-8795,11	1343,00
-8773,92	1220,00
-8752,78	899,00
-8731,68	1003,00
-8710,62	896,00
-8689,61	1018,00
-8668,63	1104,00
-8647,70	1261,00
-8626,82	1190,00
-8605,97	1111,00
-8585,17	1112,00
-8564,41	978,00
-8543,69	877,00
-8523,01	786,00
-8502,37	814,00
-8481,78	953,00
-8461,23	1070,00
-8440,71	1162,00
-8420,24	1283,00
-8399,81	1270,00
-8379,42	1307,00
-8359,08	1071,00
-8338,77	1011,00
-8318,50	1036,00
-8298,27	880,00
-8278,09	918,00
-8257,94	1053,00
-8237,83	1178,00
-8217,76	1187,00
-8197,74	1221,00
-8177,75	1169,00
-8157,80	1071,00
-8137,89	981,00
-8118,02	913,00
-8098,19	916,00
-8078,40	968,00
-8058,65	936,00
-8038,93	1030,00
-8019,26	979,00
-7999,62	946,00
-7980,02	860,00
-7960,46	827,00
-7940,94	756,00
-7921,46	753,00
-7902,01	791,00
-7882,60	705,00
-7863,23	695,00
-7843,90	922,00
-7824,61	810,00
-7805,35	973,00
-7786,13	929,00
-7766,95	958,00
-7747,80	979,00
-7728,69	740,00
-7709,62	816,00
-7690,59	913,00
-7671,59	1000,00
-7652,63	968,00
-7633,70	1040,00
-7614,81	913,00
-7595,96	897,00
-7577,15	667,00
-7558,37	738,00
-7539,62	878,00
-7520,91	838,00
-7502,24	942,00
-7483,60	921,00
-7465,00	892,00
-7446,44	776,00
-7427,91	652,00
-7409,41	430,00
-7390,95	570,00
-7372,53	531,00
-7354,14	345,00
-7335,78	505,00
-7317,46	501,00
-7299,18	617,00
-7280,92	724,00
-7262,71	897,00
-7244,52	835,00
-7226,38	798,00
-7208,26	839,00
-7190,18	790,00
-7172,14	591,00
-7154,12	693,00
-7136,15	755,00
-7118,20	709,00
-7100,29	883,00
-7082,41	846,00
-7064,57	825,00
-7046,76	828,00
-7028,98	644,00
-7011,24	540,00
-6993,53	398,00
-6975,85	479,00
-6958,20	351,00
-6940,59	299,00
-6923,01	419,00
-6905,46	498,00
-6887,94	556,00
-6870,46	649,00
-6853,01	794,00
-6835,59	712,00
-6818,21	675,00
-6800,85	591,00
-6783,53	425,00
-6766,24	276,00
-6748,98	168,00
-6731,76	309,00
-6714,56	167,00
-6697,40	254,00
-6680,26	220,00
-6663,16	414,00
-6646,09	453,00
-6629,05	531,00
-6612,05	556,00
-6595,07	635,00
-6578,13	628,00
-6561,21	390,00
-6544,33	341,00
-6527,47	173,00
-6510,65	348,00
-6493,86	181,00
-6477,10	32,00
-6460,36	203,00
-6443,66	252,00
-6426,99	136,00
-6410,35	188,00
-6393,74	167,00
-6377,16	432,00
-6360,61	374,00
-6344,09	431,00
-6327,59	303,00
-6311,13	320,00
-6294,70	488,00
-6278,29	516,00
-6261,92	598,00
-6245,58	503,00
-6229,26	584,00
-6212,97	478,00
-6196,72	429,00
-6180,49	292,00
-6164,29	115,00
-6148,12	115,00
-6131,98	8,00
-6115,86	127,00
-6099,78	-37,00
-6083,72	26,00
-6067,69	-67,00
-6051,69	194,00
-6035,72	2,00
-6019,78	294,00
-6003,87	215,00
-5987,98	311,00
-5972,12	393,00
-5956,29	413,00
-5940,49	306,00
-5924,71	264,00
-5908,96	45,00
-5893,24	148,00
-5877,55	104,00
-5861,89	36,00
-5846,25	133,00
-5830,64	77,00
-5815,05	46,00
-5799,50	216,00
-5783,97	176,00
-5768,47	273,00
-5752,99	397,00
-5737,55	291,00
-5722,12	369,00
-5706,73	428,00
-5691,36	301,00
-5676,02	193,00
-5660,71	139,00
-5645,42	141,00
-5630,16	125,00
-5614,92	177,00
-5599,71	251,00
-5584,53	112,00
-5569,37	348,00
-5554,24	1101,00
-5539,14	257,00
-5524,06	249,00
-5509,01	119,00
-5493,98	311,00
-5478,98	309,00
-5464,00	135,00
-5449,05	355,00
-5434,13	211,00
-5419,23	123,00
-5404,36	85,00
-5389,51	143,00
-5374,69	356,00
-5359,89	426,00
-5345,12	454,00
-5330,37	375,00
-5315,65	330,00
-5300,95	368,00
-5286,28	253,00
-5271,63	215,00
-5257,01	188,00
-5242,41	147,00
-5227,84	-12,00
-5213,29	140,00
-5198,76	114,00
-5184,26	101,00
-5169,79	104,00
-5155,33	139,00
-5140,91	121,00
-5126,51	271,00
-5112,13	308,00
-5097,77	86,00
-5083,44	198,00
-5069,13	80,00
-5054,85	177,00
-5040,59	235,00
-5026,36	145,00
-5012,15	183,00
-4997,96	257,00
-4983,80	117,00
-4969,66	155,00
-4955,54	100,00
-4941,44	185,00
-4927,37	352,00
-4913,33	488,00
-4899,30	486,00
-4885,30	510,00
-4871,33	240,00
-4857,37	145,00
-4843,44	139,00
-4829,53	103,00
-4815,65	291,00
-4801,79	187,00
-4787,95	140,00
-4774,13	127,00
-4760,34	144,00
-4746,56	-21,00
-4732,82	236,00
-4719,09	152,00
-4705,38	311,00
-4691,70	380,00
-4678,04	413,00
-4664,41	260,00
-4650,79	273,00
-4637,20	192,00
-4623,63	169,00
-4610,08	137,00
-4596,56	284,00
-4583,05	276,00
-4569,57	248,00
-4556,11	62,00
-4542,67	221,00
-4529,25	53,00
-4515,86	209,00
-4502,49	388,00
-4489,13	303,00
-4475,80	322,00
-4462,49	181,00
-4449,21	224,00
-4435,94	123,00
-4422,70	305,00
-4409,47	274,00
-4396,27	275,00
-4383,09	135,00
-4369,93	92,00
-4356,79	40,00
-4343,67	143,00
-4330,58	234,00
-4317,50	217,00
-4304,45	217,00
-4291,41	71,00
-4278,40	109,00
-4265,41	133,00
-4252,44	227,00
-4239,49	273,00
-4226,55	286,00
-4213,65	188,00
-4200,76	147,00
-4187,89	96,00
-4175,04	162,00
-4162,21	45,00
-4149,40	104,00
-4136,61	107,00
-4123,85	122,00
-4111,10	93,00
-4098,37	69,00
-4085,66	106,00
-4072,98	110,00
-4060,31	177,00
-4047,66	-60,00
-4035,04	197,00
-4022,43	58,00
-4009,84	62,00
-3997,27	115,00
-3984,72	103,00
-3972,19	150,00
-3959,69	24,00
-3947,20	82,00
-3934,73	102,00
-3922,27	67,00
-3909,84	61,00
-3897,43	207,00
-3885,04	203,00
-3872,67	28,00
-3860,31	135,00
-3847,98	132,00
-3835,66	144,00
-3823,36	85,00
-3811,09	94,00
-3798,83	123,00
-3786,59	25,00
-3774,37	112,00
-3762,17	163,00
-3749,98	19,00
-3737,82	176,00
-3725,67	57,00
-3713,55	39,00
-3701,44	88,00
-3689,35	83,00
-3677,28	142,00
-3665,22	175,00
-3653,19	24,00
-3641,17	56,00
-3629,18	47,00
-3617,20	-21,00
-3605,24	144,00
-3593,30	63,00
-3581,37	84,00
-3569,47	95,00
-3557,58	81,00
-3545,71	53,00
-3533,86	101,00
-3522,02	152,00
-3510,21	-19,00
-3498,41	97,00
-3486,63	39,00
-3474,87	-15,00
-3463,12	73,00
-3451,40	103,00
-3439,69	-38,00
-3428,00	74,00
-3416,33	32,00
-3404,67	104,00
-3393,03	78,00
-3381,41	-49,00
-3369,81	-15,00
-3358,22	-58,00
-3346,66	88,00
-3335,10	173,00
-3323,57	244,00
-3312,06	161,00
-3300,56	91,00
-3289,08	72,00
-3277,61	-47,00
-3266,16	-17,00
-3254,73	68,00
-3243,32	70,00
-3231,92	100,00
-3220,55	13,00
-3209,18	192,00
-3197,84	62,00
-3186,51	-1,00
-3175,20	76,00
-3163,90	135,00
-3152,63	-1,00
-3141,36	87,00
-3130,12	71,00
-3118,89	65,00
-3107,68	98,00
-3096,49	70,00
-3085,31	115,00
-3074,15	87,00
-3063,00	111,00
-3051,87	148,00
-3040,76	36,00
-3029,67	68,00
-3018,59	53,00
-3007,52	70,00
-2996,48	63,00
-2985,44	31,00
-2974,43	85,00
-2963,43	29,00
-2952,45	71,00
-2941,48	134,00
-2930,53	51,00
-2919,60	176,00
-2908,68	72,00
-2897,78	-19,00
-2886,89	61,00
-2876,02	123,00
-2865,17	66,00
-2854,33	158,00
-2843,50	-22,00
-2832,70	183,00
-2821,90	180,00
-2811,13	107,00
-2800,37	26,00
-2789,62	246,00
-2778,89	137,00
-2768,18	126,00
-2757,48	131,00
-2746,80	70,00
-2736,13	88,00
-2725,48	164,00
-2714,84	13,00
-2704,22	83,00
-2693,61	140,00
-2683,02	60,00
-2672,45	73,00
-2661,89	12,00
-2651,34	135,00
-2640,81	44,00
-2630,30	116,00
-2619,80	31,00
-2609,31	31,00
-2598,84	128,00
-2588,39	52,00
-2577,95	31,00
-2567,52	-23,00
-2557,11	28,00
-2546,71	14,00
-2536,33	90,00
-2525,97	65,00
-2515,62	43,00
-2505,28	77,00
-2494,96	-54,00
-2484,65	96,00
-2474,36	61,00
-2464,08	178,00
-2453,82	77,00
-2443,57	49,00
-2433,33	110,00
-2423,11	54,00
-2412,91	115,00
-2402,72	16,00
-2392,54	-69,00
-2382,38	88,00
-2372,23	40,00
-2362,09	4130,00
-2351,97	11,00
-2341,87	192,00
-2331,78	88,00
-2321,70	127,00
-2311,64	42,00
-2301,59	200,00
-2291,55	67,00
-2281,53	66,00
-2271,53	5,00
-2261,53	2,00
-2251,55	98,00
-2241,59	-3,00
-2231,64	185,00
-2221,70	21,00
-2211,78	112,00
-2201,87	4,00
-2191,97	128,00
-2182,09	109,00
-2172,22	82,00
-2162,37	-58,00
-2152,53	49,00
-2142,70	93,00
-2132,89	157,00
-2123,09	84,00
-2113,30	146,00
-2103,53	101,00
-2093,77	-33,00
-2084,02	40,00
-2074,29	9,00
-2064,57	34,00
-2054,86	84,00
-2045,17	67,00
-2035,49	45,00
-2025,82	79,00
-2016,17	110,00
-2006,53	19,00
-1996,91	-45,00
-1987,29	12,00
-1977,69	75,00
-1968,11	95,00
-1958,53	7,00
-1948,97	165,00
-1939,42	18,00
-1929,89	2,00
-1920,37	126,00
-1910,86	92,00
-1901,36	117,00
-1891,88	79,00
-1882,41	76,00
-1872,95	75,00
-1863,51	212,00
-1854,08	7,00
-1844,66	118,00
-1835,26	99,00
-1825,86	143,00
-1816,48	-35,00
-1807,11	64,00
-1797,76	-58,00
-1788,42	73,00
-1779,09	93,00
-1769,77	161,00
-1760,47	132,00
-1751,17	148,00
-1741,89	121,00
-1732,63	90,00
-1723,37	215,00
-1714,13	61,00
-1704,90	47,00
-1695,68	6,00
-1686,48	24,00
-1677,29	122,00
-1668,11	98,00
-1658,94	99,00
-1649,78	88,00
-1640,64	48,00
-1631,51	147,00
-1622,39	79,00
-1613,28	129,00
-1604,19	44,00
-1595,10	112,00
-1586,03	119,00
-1576,97	127,00
-1567,93	108,00
-1558,89	85,00
-1549,87	-27,00
-1540,86	19,00
-1531,86	137,00
-1522,87	31,00
-1513,90	115,00
-1504,93	46,00
-1495,98	48,00
-1487,04	112,00
-1478,12	202,00
-1469,20	27,00
-1460,30	85,00
-1451,40	74,00
-1442,52	100,00
-1433,65	71,00
-1424,80	155,00
-1415,95	62,00
-1407,12	200,00
-1398,30	26,00
-1389,48	45,00
-1380,69	13,00
-1371,90	109,00
-1363,12	13,00
-1354,36	144,00
-1345,60	7,00
-1336,86	106,00
-1328,13	113,00
-1319,41	57,00
-1310,70	94,00
-1302,01	-22,00
-1293,32	62,00
-1284,65	50,00
-1275,99	140,00
-1267,33	-31,00
-1258,69	76,00
-1250,06	136,00
-1241,45	100,00
-1232,84	186,00
-1224,25	99,00
-1215,66	55,00
-1207,09	7,00
-1198,53	125,00
-1189,97	-9,00
-1181,43	162,00
-1172,91	52,00
-1164,39	86,00
-1155,88	175,00
-1147,38	116,00
-1138,90	125,00
-1130,43	48,00
-1121,96	110,00
-1113,51	90,00
-1105,07	29,00
-1096,64	66,00
-1088,22	111,00
-1079,81	99,00
-1071,41	40,00
-1063,02	138,00
-1054,65	92,00
-1046,28	101,00
-1037,92	70,00
-1029,58	66,00
-1021,24	50,00
-1012,92	50,00
-1004,61	171,00
-996,30	189,00
-988,01	80,00
-979,73	149,00
-971,46	94,00
-963,20	-56,00
-954,95	137,00
-946,71	107,00
-938,48	-13,00
-930,26	71,00
-922,06	19,00
-913,86	102,00
-905,67	48,00
-897,49	173,00
-889,33	25,00
-881,17	15,00
-873,02	138,00
-864,89	-69,00
-856,76	94,00
-848,65	87,00
-840,54	90,00
-832,45	159,00
-824,36	99,00
-816,29	188,00
-808,22	0,00
-800,17	151,00
-792,12	189,00
-784,09	52,00
-776,06	27,00
-768,05	74,00
-760,04	172,00
-752,05	113,00
-744,07	95,00
-736,09	-10,00
-728,13	152,00
-720,17	18,00
-712,23	59,00
-704,29	101,00
-696,37	91,00
-688,45	98,00
-680,55	-12,00
-672,65	30,00
-664,77	106,00
-656,89	30,00
-649,03	-5,00
-641,17	47,00
-633,32	117,00
-625,49	122,00
-617,66	67,00
-609,84	148,00
-602,03	136,00
-594,23	126,00
-586,45	152,00
-578,67	59,00
-570,90	85,00
-563,14	96,00
-555,39	-1,00
-547,65	162,00
-539,91	35,00
-532,19	122,00
-524,48	107,00
-516,78	20,00
-509,08	107,00
-501,40	-7,00
-493,72	131,00
-486,06	164,00
-478,40	27,00
-470,76	188,00
-463,12	121,00
-455,49	103,00
-447,87	81,00
-440,26	29,00
-432,66	31,00
-425,07	151,00
-417,49	76,00
-409,92	81,00
-402,35	166,00
-394,80	184,00
-387,25	127,00
-379,72	182,00
-372,19	80,00
-364,67	191,00
-357,17	108,00
-349,67	181,00
-342,18	184,00
-334,69	115,00
-327,22	163,00
-319,76	61,00
-312,30	49,00
-304,86	135,00
-297,42	167,00
-290,00	102,00
-282,58	99,00
-275,17	185,00
-267,77	78,00
-260,37	161,00
-252,99	85,00
-245,62	168,00
-238,25	112,00
-230,90	254,00
-223,55	199,00
-216,21	207,00
-208,88	216,00
-201,56	178,00
-194,25	244,00
-186,94	244,00
-179,65	233,00
-172,36	328,00
-165,08	331,00
-157,81	306,00
-150,55	362,00
-143,30	520,00
-136,06	352,00
-128,82	510,00
-121,60	490,00
-114,38	557,00
-107,17	625,00
-99,97	672,00
-92,78	856,00
-85,60	850,00
-78,42	1027,00
-71,25	1299,00
-64,10	1402,00
-56,95	1676,00
-49,81	1970,00
-42,67	2322,00
-35,55	2931,00
-28,43	3785,00
-21,33	6348,00
-14,23	19721,00
-7,14	56043,00
-0,05	55763,00
7,02	55513,00
14,09	55717,00
21,14	19876,00
28,19	8153,00
35,23	5053,00
42,27	3757,00
49,29	3114,00
56,31	2559,00
63,32	2257,00
70,32	1793,00
77,31	1567,00
84,29	1302,00
91,27	1185,00
98,23	1150,00
105,19	1000,00
112,14	951,00
119,09	1247,00
126,02	1819,00
132,95	2129,00
139,87	2012,00
146,78	2011,00
153,68	2031,00
160,58	1998,00
167,46	1977,00
174,34	1895,00
181,21	1865,00
188,08	1917,00
194,93	1799,00
201,78	1870,00
208,62	1840,00
215,45	1800,00
222,27	1756,00
229,09	1850,00
235,90	1667,00
242,70	1722,00
249,49	1704,00
256,27	1747,00
263,05	1666,00
269,82	1649,00
276,58	1698,00
283,33	1646,00
290,08	1664,00
296,82	1549,00
303,55	1619,00
310,27	1605,00
316,98	1431,00
323,69	1441,00
330,39	1470,00
337,08	1507,00
343,76	1480,00
350,44	1576,00
357,11	1495,00
363,77	1405,00
370,42	1522,00
377,07	1372,00
383,71	1432,00
390,34	1381,00
396,96	1428,00
403,58	1476,00
410,19	1391,00
416,79	1422,00
423,38	1511,00
429,97	1345,00
436,55	1259,00
443,12	1252,00
449,68	1328,00
456,24	1291,00
462,79	1183,00
469,33	1230,00
475,86	1265,00
482,39	1269,00
488,91	1246,00
495,42	1218,00
501,93	1216,00
508,42	1147,00
514,91	1286,00
521,40	1160,00
527,87	1107,00
534,34	1208,00
540,80	1042,00
547,25	1014,00
553,70	1155,00
560,14	1063,00
566,57	1187,00
573,00	1032,00
579,41	1073,00
585,83	1120,00
592,23	1303,00
598,62	936,00
605,01	990,00
611,40	1105,00
617,77	1206,00
624,14	1022,00
630,50	1061,00
636,85	1085,00
643,20	1162,00
649,54	1058,00
655,87	1056,00
662,20	988,00
668,52	991,00
674,83	1117,00
681,13	1094,00
687,43	1006,00
693,72	989,00
700,00	1012,00
706,28	1044,00
712,55	1045,00
718,81	1027,00
725,07	1062,00
731,32	997,00
737,56	1000,00
743,79	1076,00
750,02	1091,00
756,24	1085,00
762,46	1030,00
768,67	1023,00
774,87	972,00
781,06	1089,00
787,25	963,00
793,43	1036,00
799,60	953,00
805,77	1009,00
811,93	1059,00
818,08	1039,00
824,23	1098,00
830,37	1038,00
836,50	921,00
842,63	1000,00
848,75	1085,00
854,87	976,00
860,97	909,00
867,07	1044,00
873,17	868,00
879,25	973,00
885,33	1001,00
891,41	1006,00
897,47	1070,00
903,53	972,00
909,59	894,00
915,63	973,00
921,67	953,00
927,71	895,00
933,74	852,00
939,76	953,00
945,77	944,00
951,78	952,00
957,78	949,00
963,78	945,00
969,77	889,00
975,75	816,00
981,72	945,00
987,69	1094,00
993,66	949,00
999,61	970,00
1005,56	958,00
1011,51	1041,00
1017,44	973,00
1023,37	881,00
1029,30	920,00
1035,22	925,00
1041,13	776,00
1047,03	876,00
1052,93	971,00
1058,83	1147,00
1064,71	1288,00
1070,59	1211,00
1076,47	1035,00
1082,33	964,00
1088,20	847,00
1094,05	805,00
1099,90	875,00
1105,74	911,00
1111,58	932,00
1117,41	950,00
1123,23	904,00
1129,05	1134,00
1134,86	1054,00
1140,67	922,00
1146,47	898,00
1152,26	840,00
1158,05	833,00
1163,83	936,00
1169,60	915,00
1175,37	766,00
1181,13	827,00
1186,89	737,00
1192,64	835,00
1198,38	784,00
1204,12	880,00
1209,85	690,00
1215,58	629,00
1221,30	745,00
1227,02	769,00
1232,72	830,00
1238,43	826,00
1244,12	778,00
1249,81	778,00
1255,50	859,00
1261,17	839,00
1266,85	839,00
1272,51	939,00
1278,17	779,00
1283,83	967,00
1289,47	1180,00
1295,12	1373,00
1300,75	1291,00
1306,38	1221,00
1312,01	1097,00
1317,63	971,00
1323,24	940,00
1328,85	925,00
1334,45	1077,00
1340,04	944,00
1345,63	892,00
1351,22	939,00
1356,80	979,00
1362,37	1036,00
1367,93	1041,00
1373,49	980,00
1379,05	1089,00
1384,60	1059,00
1390,14	963,00
1395,68	954,00
1401,21	971,00
1406,74	997,00
1412,26	1022,00
1417,77	1089,00
1423,28	1120,00
1428,78	1271,00
1434,28	1366,00
1439,77	1524,00
1445,26	1426,00
1450,74	1423,00
1456,22	1307,00
1461,68	1360,00
1467,15	1276,00
1472,61	1218,00
1478,06	1081,00
1483,51	897,00
1488,95	1098,00
1494,38	925,00
1499,81	887,00
1505,24	930,00
1510,65	751,00
1516,07	775,00
1521,48	695,00
1526,88	810,00
1532,27	774,00
1537,67	752,00
1543,05	751,00
1548,43	760,00
1553,81	803,00
1559,18	579,00
1564,54	783,00
1569,90	840,00
1575,25	697,00
1580,60	758,00
1585,94	702,00
1591,28	643,00
1596,61	728,00
1601,93	817,00
1607,25	740,00
1612,57	684,00
1617,88	708,00
1623,18	816,00
1628,48	736,00
1633,77	721,00
1639,06	846,00
1644,34	667,00
1649,62	648,00
1654,89	713,00
1660,16	641,00
1665,42	699,00
1670,67	604,00
1675,92	662,00
1681,17	646,00
1686,41	692,00
1691,64	639,00
1696,87	715,00
1702,10	521,00
1707,32	739,00
1712,53	595,00
1717,74	591,00
1722,94	780,00
1728,14	555,00
1733,33	564,00
1738,52	616,00
1743,70	579,00
1748,88	582,00
1754,05	456,00
1759,22	620,00
1764,38	737,00
1769,53	555,00
1774,69	483,00
1779,83	583,00
1784,97	606,00
1790,11	563,00
1795,24	523,00
1800,36	452,00
1805,48	536,00
1810,60	704,00
1815,71	467,00
1820,82	528,00
1825,92	369,00
1831,01	482,00
1836,10	630,00
1841,19	603,00
1846,26	414,00
1851,34	469,00
1856,41	617,00
1861,47	487,00
1866,53	493,00
1871,59	484,00
1876,64	469,00
1881,68	563,00
1886,72	511,00
1891,76	539,00
1896,79	547,00
1901,81	447,00
1906,83	374,00
1911,85	392,00
1916,86	538,00
1921,86	489,00
1926,86	461,00
1931,86	468,00
1936,85	383,00
1941,83	435,00
1946,81	342,00
1951,79	446,00
1956,76	441,00
1961,72	423,00
1966,68	454,00
1971,64	466,00
1976,59	340,00
1981,54	414,00
1986,48	456,00
1991,42	294,00
1996,35	484,00
2001,27	387,00
2006,20	395,00
2011,11	319,00
2016,03	505,00
2020,93	321,00
2025,84	299,00
2030,73	441,00
2035,63	259,00
2040,52	430,00
2045,40	335,00
2050,28	230,00
2055,15	361,00
2060,02	339,00
2064,89	384,00
2069,75	249,00
2074,60	357,00
2079,46	322,00
2084,30	324,00
2089,14	323,00
2093,98	309,00
2098,81	266,00
2103,64	346,00
2108,46	391,00
2113,28	385,00
2118,09	283,00
2122,90	386,00
2127,70	384,00
2132,50	421,00
2137,30	289,00
2142,09	341,00
2146,87	388,00
2151,66	393,00
2156,43	325,00
2161,20	498,00
2165,97	309,00
2170,73	347,00
2175,49	279,00
2180,24	374,00
2184,99	346,00
2189,74	401,00
2194,48	287,00
2199,21	332,00
2203,94	216,00
2208,67	311,00
2213,39	243,00
2218,11	267,00
2222,82	259,00
2227,53	333,00
2232,23	325,00
2236,93	472,00
2241,63	265,00
2246,32	295,00
2251,00	278,00
2255,68	356,00
2260,36	327,00
2265,03	207,00
2269,70	363,00
2274,36	378,00
2279,02	335,00
2283,68	251,00
2288,33	236,00
2292,97	409,00
2297,61	234,00
2302,25	176,00
2306,88	255,00
2311,51	282,00
2316,14	336,00
2320,75	223,00
2325,37	283,00
2329,98	216,00
2334,59	315,00
2339,19	283,00
2343,79	244,00
2348,38	298,00
2352,97	230,00
2357,55	351,00
2362,13	265,00
2366,71	214,00
2371,28	412,00
2375,85	157,00
2380,41	280,00
2384,97	218,00
2389,52	343,00
2394,07	350,00
2398,62	266,00
2403,16	226,00
2407,70	146,00
2412,23	212,00
2416,76	331,00
2421,29	233,00
2425,81	136,00
2430,32	259,00
2434,84	248,00
2439,34	260,00
2443,85	263,00
2448,35	228,00
2452,84	296,00
2457,33	210,00
2461,82	279,00
2466,30	222,00
2470,78	160,00
2475,25	204,00
2479,72	138,00
2484,19	254,00
2488,65	222,00
2493,11	279,00
2497,56	276,00
2502,01	210,00
2506,46	144,00
2510,90	226,00
2515,34	254,00
2519,77	291,00
2524,20	293,00
2528,62	252,00
2533,04	143,00
2537,46	264,00
2541,87	206,00
2546,28	253,00
2550,68	252,00
2555,08	181,00
2559,48	256,00
2563,87	280,00
2568,26	190,00
2572,64	229,00
2577,02	266,00
2581,40	280,00
2585,77	251,00
2590,14	288,00
2594,50	214,00
2598,86	208,00
2603,22	114,00
2607,57	244,00
2611,92	173,00
2616,26	138,00
2620,60	153,00
2624,94	304,00
2629,27	190,00
2633,60	239,00
2637,92	274,00
2642,24	151,00
2646,56	172,00
2650,87	169,00
2655,18	201,00
2659,48	140,00
2663,78	239,00
2668,08	211,00
2672,37	237,00
2676,66	174,00
2680,95	370,00
2685,23	230,00
2689,50	206,00
2693,78	104,00
2698,05	244,00
2702,31	245,00
2706,57	228,00
2710,83	198,00
2715,08	304,00
2719,33	349,00
2723,58	268,00
2727,82	267,00
2732,06	312,00
2736,29	258,00
2740,53	208,00
2744,75	192,00
2748,97	316,00
2753,19	353,00
2757,41	322,00
2761,62	297,00
2765,83	288,00
2770,03	174,00
2774,23	161,00
2778,43	190,00
2782,62	278,00
2786,81	237,00
2791,00	255,00
2795,18	252,00
2799,35	294,00
2803,53	335,00
2807,70	324,00
2811,86	278,00
2816,03	297,00
2820,19	350,00
2824,34	354,00
2828,49	441,00
2832,64	369,00
2836,78	570,00
2840,92	575,00
2845,06	757,00
2849,19	981,00
2853,32	989,00
2857,45	954,00
2861,57	835,00
2865,69	832,00
2869,80	856,00
2873,91	813,00
2878,02	891,00
2882,12	1004,00
2886,22	1051,00
2890,32	961,00
2894,41	714,00
2898,50	747,00
2902,58	723,00
2906,67	897,00
2910,74	702,00
2914,82	620,00
2918,89	623,00
2922,96	543,00
2927,02	592,00
2931,08	577,00
2935,13	369,00
2939,19	552,00
2943,24	501,00
2947,28	448,00
2951,32	282,00
2955,36	309,00
2959,40	289,00
2963,43	343,00
2967,46	203,00
2971,48	174,00
2975,50	273,00
2979,52	204,00
2983,53	324,00
2987,54	201,00
2991,55	146,00
2995,55	153,00
2999,55	194,00
3003,54	182,00
3007,54	203,00
3011,53	121,00
3015,51	157,00
3019,49	225,00
3023,47	88,00
3027,45	185,00
3031,42	223,00
3035,39	144,00
3039,35	91,00
3043,31	104,00
3047,27	157,00
3051,22	173,00
3055,17	261,00
3059,12	156,00
3063,06	236,00
3067,00	241,00
3070,94	84,00
3074,87	162,00
3078,80	79,00
3082,73	113,00
3086,65	145,00
3090,57	41,00
3094,49	163,00
3098,40	131,00
3102,31	74,00
3106,22	6,00
3110,12	67,00
3114,02	21,00
3117,92	54,00
3121,81	173,00
3125,70	94,00
3129,58	144,00
3133,47	177,00
3137,34	165,00
3141,22	88,00
3145,09	177,00
3148,96	27,00
3152,83	254,00
3156,69	115,00
3160,55	144,00
3164,40	164,00
3168,26	146,00
3172,10	255,00
3175,95	184,00
3179,79	190,00
3183,63	90,00
3187,47	201,00
3191,30	57,00
3195,13	40,00
3198,95	99,00
3202,78	136,00
3206,60	143,00
3210,41	115,00
3214,23	145,00
3218,03	177,00
3221,84	8,00
3225,64	89,00
3229,44	179,00
3233,24	110,00
3237,03	131,00
3240,82	156,00
3244,61	95,00
3248,39	175,00
3252,17	223,00
3255,95	117,00
3259,72	122,00
3263,49	117,00
3267,26	100,00
3271,03	150,00
3274,79	36,00
3278,54	124,00
3282,30	64,00
3286,05	254,00
3289,80	109,00
3293,54	144,00
3297,29	117,00
3301,02	235,00
3304,76	155,00
3308,49	115,00
3312,22	188,00
3315,95	148,00
3319,67	96,00
3323,39	190,00
3327,10	123,00
3330,82	160,00
3334,53	179,00
3338,24	199,00
3341,94	116,00
3345,64	162,00
3349,34	103,00
3353,03	146,00
3356,72	229,00
3360,41	85,00
3364,10	98,00
3367,78	147,00
3371,46	158,00
3375,13	143,00
3378,81	294,00
3382,48	110,00
3386,14	137,00
3389,81	139,00
3393,47	61,00
3397,12	212,00
3400,78	24,00
3404,43	138,00
3408,08	136,00
3411,72	147,00
3415,36	203,00
3419,00	168,00
3422,64	73,00
3426,27	235,00
3429,90	154,00
3433,53	131,00
3437,15	39,00
3440,77	22,00
3444,39	91,00
3448,00	121,00
3451,62	21,00
3455,22	196,00
3458,83	69,00
3462,43	172,00
3466,03	50,00
3469,63	82,00
3473,22	56,00
3476,81	123,00
3480,40	10,00
3483,99	82,00
3487,57	140,00
3491,15	-33,00
3494,72	111,00
3498,29	134,00
3501,86	76,00
3505,43	36,00
3508,99	95,00
3512,56	138,00
3516,11	229,00
3519,67	30,00
3523,22	-36,00
3526,77	17,00
3530,32	19,00
3533,86	107,00
3537,40	-20,00
3540,94	100,00
3544,47	78,00
3548,00	149,00
3551,53	51,00
3555,06	-5,00
3558,58	99,00
3562,10	167,00
3565,62	168,00
3569,13	-60,00
3572,64	50,00
3576,15	88,00
3579,66	66,00
3583,16	155,00
3586,66	60,00
3590,16	14,00
3593,65	77,00
3597,14	122,00
3600,63	72,00
3604,11	120,00
3607,60	75,00
3611,08	42,00
3614,55	86,00
3618,03	17,00
3621,50	-69,00
3624,97	122,00
3628,43	8,00
3631,90	157,00
3635,36	115,00
3638,81	73,00
3642,27	78,00
3645,72	105,00
3649,17	-7,00
3652,61	16,00
3656,06	-47,00
3659,50	11,00
3662,93	49,00
3666,37	169,00
3669,80	35,00
3673,23	84,00
3676,65	94,00
3680,08	56,00
3683,50	97,00
3686,92	98,00
3690,33	11,00
3693,74	49,00
3697,15	26,00
3700,56	86,00
3703,96	108,00
3707,36	-16,00
3710,76	-15,00
3714,16	111,00
3717,55	140,00
3720,94	74,00
3724,33	97,00
3727,71	72,00
3731,10	43,00
3734,48	91,00
3737,85	24,00
3741,23	22,00
3744,60	67,00
3747,97	126,00
3751,33	89,00
3754,69	108,00
3758,05	97,00
3761,41	134,00
3764,77	140,00
3768,12	75,00
3771,47	44,00
3774,82	71,00
3778,16	1,00
3781,50	4,00
3784,84	2,00
3788,18	4,00
>>>>>End Processed Spectral Data<<<<<
