SpectraSuite Data File
++++++++++++++++++++++++++++++++++++
Date: Wed Feb 11 17:06:05 ICT 2026
User: Administrator
Dark Spectrum Present: Yes
Reference Spectrum Present: No
Number of Sampled Component Spectra: 1
Spectrometers: MAYP113682
Integration Time (usec): 3000000 (MAYP113682)
Spectra Averaged: 1 (MAYP113682)
Boxcar Smoothing: 0 (MAYP113682)
Correct for Electrical Dark: No (MAYP113682)
Strobe/Lamp Enabled: No (MAYP113682)
Correct for Detector Non-linearity: No (MAYP113682)
Correct for Stray Light: No (MAYP113682)
Number of Pixels in Processed Spectrum: 2068
>>>>>Begin Processed Spectral Data<<<<<
-37534,58	8,00
-37414,56	3,00
-37295,11	-1,00
-37176,24	4,00
-37057,95	48,00
-36940,22	160,00
-36823,05	1,00
-36706,45	124,00
-36590,40	65,00
-36474,90	4,00
-36359,95	12,00
-36245,55	5,00
-36131,68	99,00
-36018,35	70,00
-35905,55	204,00
-35793,29	41,00
-35681,54	93,00
-35570,32	45,00
-35459,62	216,00
-35349,43	58,00
-35239,75	130,00
-35130,58	128,00
-35021,91	41,00
-34913,74	109,00
-34806,07	84,00
-34698,89	42,00
-34592,20	118,00
-34486,00	86,00
-34380,28	150,00
-34275,04	-36,00
-34170,27	21,00
-34065,98	-27,00
-33962,16	94,00
-33858,81	176,00
-33755,92	26,00
-33653,49	23,00
-33551,52	67,00
-33450,01	45,00
-33348,94	-29,00
-33248,33	16,00
-33148,16	-24,00
-33048,43	118,00
-32949,14	62,00
-32850,29	68,00
-32751,87	65,00
-32653,89	77,00
-32556,33	-115,00
-32459,20	58,00
-32362,49	153,00
-32266,19	89,00
-32170,32	157,00
-32074,86	121,00
-31979,82	59,00
-31885,18	36,00
-31790,95	99,00
-31697,12	90,00
-31603,69	40,00
-31510,67	58,00
-31418,04	175,00
-31325,80	60,00
-31233,95	204,00
-31142,49	22,00
-31051,42	10,00
-30960,73	95,00
-30870,43	52,00
-30780,50	78,00
-30690,95	122,00
-30601,77	209,00
-30512,97	-30,00
-30424,53	49,00
-30336,46	58,00
-30248,76	168,00
-30161,42	76,00
-30074,44	100,00
-29987,81	119,00
-29901,55	119,00
-29815,63	128,00
-29730,07	66,00
-29644,86	54,00
-29560,00	7,00
-29475,48	9,00
-29391,30	16,00
-29307,47	130,00
-29223,97	112,00
-29140,81	94,00
-29057,99	39,00
-28975,50	87,00
-28893,34	28,00
-28811,51	45,00
-28730,00	101,00
-28648,82	131,00
-28567,97	50,00
-28487,43	-13,00
-28407,21	-25,00
-28327,32	-13,00
-28247,73	140,00
-28168,46	176,00
-28089,50	4,00
-28010,85	6,00
-27932,51	79,00
-27854,48	44,00
-27776,75	0,00
-27699,32	111,00
-27622,19	132,00
-27545,37	18,00
-27468,84	-21,00
-27392,60	149,00
-27316,66	18,00
-27241,01	82,00
-27165,66	152,00
-27090,59	64,00
-27015,81	78,00
-26941,31	123,00
-26867,10	-17,00
-26793,17	87,00
-26719,52	166,00
-26646,15	107,00
-26573,06	-22,00
-26500,24	40,00
-26427,70	55,00
-26355,43	73,00
-26283,43	76,00
-26211,71	94,00
-26140,25	116,00
-26069,06	72,00
-25998,13	93,00
-25927,46	59,00
-25857,06	-56,00
-25786,92	80,00
-25717,04	11,00
-25647,42	108,00
-25578,05	156,00
-25508,94	18,00
-25440,09	57,00
-25371,48	134,00
-25303,13	3,00
-25235,02	146,00
-25167,17	94,00
-25099,56	60,00
-25032,19	-5,00
-24965,07	41,00
-24898,20	65,00
-24831,56	18,00
-24765,17	33,00
-24699,01	91,00
-24633,10	40,00
-24567,41	110,00
-24501,97	81,00
-24436,75	60,00
-24371,77	85,00
-24307,03	52,00
-24242,51	-63,00
-24178,22	-122,00
-24114,16	54,00
-24050,32	164,00
-23986,71	98,00
-23923,32	152,00
-23860,16	17,00
-23797,22	88,00
-23734,50	55,00
-23672,00	72,00
-23609,71	95,00
-23547,65	39,00
-23485,80	129,00
-23424,16	45,00
-23362,74	110,00
-23301,53	-30,00
-23240,54	70,00
-23179,75	96,00
-23119,17	71,00
-23058,80	14,00
-22998,64	75,00
-22938,68	52,00
-22878,93	79,00
-22819,39	-2,00
-22760,04	55,00
-22700,90	2,00
-22641,96	69,00
-22583,22	158,00
-22524,68	67,00
-22466,33	-7,00
-22408,19	-7,00
-22350,23	135,00
-22292,48	48,00
-22234,92	78,00
-22177,55	-47,00
-22120,37	113,00
-22063,38	47,00
-22006,58	45,00
-21949,98	60,00
-21893,56	85,00
-21837,33	87,00
-21781,28	69,00
-21725,42	55,00
-21669,74	167,00
-21614,25	130,00
-21558,94	67,00
-21503,81	10,00
-21448,86	15,00
-21394,10	99,00
-21339,51	37,00
-21285,10	0,00
-21230,86	2,00
-21176,81	25,00
-21122,93	22,00
-21069,22	22,00
-21015,69	74,00
-20962,33	60,00
-20909,14	61,00
-20856,13	59,00
-20803,28	86,00
-20750,61	93,00
-20698,10	103,00
-20645,76	67,00
-20593,59	125,00
-20541,59	35,00
-20489,75	155,00
-20438,07	45,00
-20386,56	180,00
-20335,22	116,00
-20284,03	82,00
-20233,01	118,00
-20182,15	-32,00
-20131,45	67,00
-20080,91	-29,00
-20030,52	55,00
-19980,30	9,00
-19930,23	68,00
-19880,32	117,00
-19830,56	57,00
-19780,96	99,00
-19731,52	154,00
-19682,23	91,00
-19633,09	-115,00
-19584,10	1,00
-19535,26	183,00
-19486,58	61,00
-19438,04	161,00
-19389,66	49,00
-19341,42	152,00
-19293,33	-38,00
-19245,39	76,00
-19197,60	1,00
-19149,95	-22,00
-19102,45	91,00
-19055,09	88,00
-19007,87	139,00
-18960,80	165,00
-18913,87	185,00
-18867,09	-20,00
-18820,44	106,00
-18773,94	167,00
-18727,57	139,00
-18681,35	96,00
-18635,26	120,00
-18589,31	92,00
-18543,50	93,00
-18497,83	101,00
-18452,29	1,00
-18406,89	-10,00
-18361,63	27,00
-18316,50	61,00
-18271,50	16,00
-18226,63	58,00
-18181,90	59,00
-18137,30	235,00
-18092,84	68,00
-18048,50	103,00
-18004,29	120,00
-17960,22	168,00
-17916,27	49,00
-17872,45	83,00
-17828,76	-23,00
-17785,20	86,00
-17741,77	89,00
-17698,46	91,00
-17655,28	40,00
-17612,22	14,00
-17569,29	5,00
-17526,48	159,00
-17483,79	168,00
-17441,23	-71,00
-17398,79	103,00
-17356,48	5,00
-17314,28	93,00
-17272,21	94,00
-17230,26	-25,00
-17188,42	135,00
-17146,71	46,00
-17105,12	33,00
-17063,64	94,00
-17022,28	127,00
-16981,04	163,00
-16939,92	115,00
-16898,91	-10,00
-16858,02	51,00
-16817,25	-104,00
-16776,59	39,00
-16736,04	40,00
-16695,61	86,00
-16655,29	39,00
-16615,09	72,00
-16574,99	36,00
-16535,01	128,00
-16495,15	20,00
-16455,39	69,00
-16415,74	8,00
-16376,21	68,00
-16336,78	82,00
-16297,46	63,00
-16258,26	100,00
-16219,16	120,00
-16180,17	103,00
-16141,28	25,00
-16102,51	45,00
-16063,84	117,00
-16025,27	18,00
-15986,82	127,00
-15948,46	99,00
-15910,22	43,00
-15872,07	160,00
-15834,04	-46,00
-15796,10	88,00
-15758,27	90,00
-15720,54	54,00
-15682,91	63,00
-15645,39	91,00
-15607,97	112,00
-15570,64	145,00
-15533,42	102,00
-15496,30	9,00
-15459,28	84,00
-15422,36	96,00
-15385,54	137,00
-15348,82	193,00
-15312,19	14,00
-15275,66	76,00
-15239,23	54,00
-15202,90	1,00
-15166,67	-40,00
-15130,53	-16,00
-15094,48	98,00
-15058,54	10,00
-15022,68	207,00
-14986,93	115,00
-14951,26	119,00
-14915,69	-99,00
-14880,22	77,00
-14844,84	-5,00
-14809,55	102,00
-14774,35	-45,00
-14739,25	108,00
-14704,24	9,00
-14669,32	64,00
-14634,49	22,00
-14599,75	68,00
-14565,10	52,00
-14530,55	89,00
-14496,08	41,00
-14461,70	53,00
-14427,41	3,00
-14393,21	37,00
-14359,10	71,00
-14325,07	103,00
-14291,14	109,00
-14257,29	164,00
-14223,52	10,00
-14189,85	51,00
-14156,26	131,00
-14122,76	111,00
-14089,34	63,00
-14056,01	-55,00
-14022,76	-4,00
-13989,60	25,00
-13956,52	67,00
-13923,53	8,00
-13890,62	53,00
-13857,79	78,00
-13825,05	9,00
-13792,39	82,00
-13759,81	139,00
-13727,31	6,00
-13694,90	89,00
-13662,57	109,00
-13630,31	-13,00
-13598,14	116,00
-13566,05	19,00
-13534,05	-34,00
-13502,12	6,00
-13470,27	67,00
-13438,50	73,00
-13406,80	72,00
-13375,19	44,00
-13343,66	22,00
-13312,20	128,00
-13280,83	55,00
-13249,53	76,00
-13218,30	5,00
-13187,16	61,00
-13156,09	63,00
-13125,10	54,00
-13094,18	130,00
-13063,34	77,00
-13032,58	88,00
-13001,89	52,00
-12971,28	132,00
-12940,74	79,00
-12910,27	55,00
-12879,88	74,00
-12849,57	122,00
-12819,33	58,00
-12789,16	156,00
-12759,06	97,00
-12729,04	15,00
-12699,09	106,00
-12669,21	-51,00
-12639,41	20,00
-12609,68	122,00
-12580,02	72,00
-12550,43	23,00
-12520,91	72,00
-12491,46	4,00
-12462,08	130,00
-12432,77	-16,00
-12403,54	16,00
-12374,37	36,00
-12345,27	-60,00
-12316,24	108,00
-12287,29	64,00
-12258,40	63,00
-12229,57	75,00
-12200,82	57,00
-12172,14	99,00
-12143,52	169,00
-12114,97	96,00
-12086,49	120,00
-12058,07	64,00
-12029,73	207,00
-12001,44	92,00
-11973,23	116,00
-11945,08	75,00
-11917,00	83,00
-11888,98	162,00
-11861,03	34,00
-11833,15	38,00
-11805,32	91,00
-11777,57	58,00
-11749,88	75,00
-11722,25	45,00
-11694,69	100,00
-11667,19	-27,00
-11639,75	-2,00
-11612,38	65,00
-11585,07	42,00
-11557,83	92,00
-11530,65	40,00
-11503,53	44,00
-11476,47	92,00
-11449,48	-15,00
-11422,54	52,00
-11395,67	113,00
-11368,86	62,00
-11342,11	5,00
-11315,43	155,00
-11288,80	-19,00
-11262,23	5,00
-11235,73	48,00
-11209,28	162,00
-11182,90	86,00
-11156,57	24,00
-11130,31	108,00
-11104,10	17,00
-11077,96	192,00
-11051,87	82,00
-11025,84	159,00
-10999,87	118,00
-10973,96	51,00
-10948,11	98,00
-10922,31	110,00
-10896,58	90,00
-10870,90	73,00
-10845,28	59,00
-10819,71	129,00
-10794,20	39,00
-10768,75	48,00
-10743,36	20,00
-10718,02	44,00
-10692,74	141,00
-10667,52	75,00
-10642,35	107,00
-10617,24	92,00
-10592,18	85,00
-10567,18	72,00
-10542,23	106,00
-10517,34	84,00
-10492,51	126,00
-10467,72	-14,00
-10443,00	34,00
-10418,32	125,00
-10393,70	117,00
-10369,14	53,00
-10344,63	119,00
-10320,17	102,00
-10295,77	100,00
-10271,42	107,00
-10247,12	119,00
-10222,88	177,00
-10198,68	124,00
-10174,54	145,00
-10150,46	133,00
-10126,42	104,00
-10102,44	88,00
-10078,51	200,00
-10054,63	20,00
-10030,80	152,00
-10007,03	106,00
-9983,30	124,00
-9959,63	203,00
-9936,01	53,00
-9912,44	123,00
-9888,92	93,00
-9865,44	162,00
-9842,02	63,00
-9818,65	196,00
-9795,33	144,00
-9772,06	149,00
-9748,84	71,00
-9725,67	135,00
-9702,55	234,00
-9679,47	298,00
-9656,45	193,00
-9633,47	204,00
-9610,55	179,00
-9587,67	369,00
-9564,84	210,00
-9542,06	308,00
-9519,32	288,00
-9496,64	190,00
-9474,00	337,00
-9451,41	437,00
-9428,87	229,00
-9406,37	343,00
-9383,92	174,00
-9361,52	323,00
-9339,17	314,00
-9316,86	319,00
-9294,60	348,00
-9272,38	485,00
-9250,21	569,00
-9228,09	710,00
-9206,01	737,00
-9183,98	511,00
-9162,00	417,00
-9140,06	380,00
-9118,16	420,00
-9096,31	407,00
-9074,51	495,00
-9052,75	576,00
-9031,04	614,00
-9009,37	503,00
-8987,74	344,00
-8966,16	274,00
-8944,63	226,00
-8923,14	198,00
-8901,69	217,00
-8880,29	302,00
-8858,93	476,00
-8837,61	549,00
-8816,34	615,00
-8795,11	578,00
-8773,92	440,00
-8752,78	342,00
-8731,68	401,00
-8710,62	346,00
-8689,61	483,00
-8668,63	467,00
-8647,70	548,00
-8626,82	614,00
-8605,97	552,00
-8585,17	460,00
-8564,41	395,00
-8543,69	358,00
-8523,01	346,00
-8502,37	290,00
-8481,78	397,00
-8461,23	536,00
-8440,71	528,00
-8420,24	765,00
-8399,81	620,00
-8379,42	692,00
-8359,08	579,00
-8338,77	550,00
-8318,50	533,00
-8298,27	428,00
-8278,09	424,00
-8257,94	543,00
-8237,83	598,00
-8217,76	586,00
-8197,74	669,00
-8177,75	666,00
-8157,80	595,00
-8137,89	535,00
-8118,02	447,00
-8098,19	594,00
-8078,40	598,00
-8058,65	631,00
-8038,93	600,00
-8019,26	577,00
-7999,62	589,00
-7980,02	486,00
-7960,46	462,00
-7940,94	319,00
-7921,46	354,00
-7902,01	439,00
-7882,60	370,00
-7863,23	455,00
-7843,90	390,00
-7824,61	377,00
-7805,35	488,00
-7786,13	375,00
-7766,95	522,00
-7747,80	504,00
-7728,69	407,00
-7709,62	476,00
-7690,59	508,00
-7671,59	551,00
-7652,63	577,00
-7633,70	543,00
-7614,81	594,00
-7595,96	440,00
-7577,15	412,00
-7558,37	395,00
-7539,62	559,00
-7520,91	473,00
-7502,24	517,00
-7483,60	537,00
-7465,00	485,00
-7446,44	343,00
-7427,91	399,00
-7409,41	169,00
-7390,95	417,00
-7372,53	183,00
-7354,14	92,00
-7335,78	202,00
-7317,46	307,00
-7299,18	235,00
-7280,92	322,00
-7262,71	490,00
-7244,52	484,00
-7226,38	499,00
-7208,26	468,00
-7190,18	436,00
-7172,14	317,00
-7154,12	359,00
-7136,15	391,00
-7118,20	398,00
-7100,29	446,00
-7082,41	527,00
-7064,57	462,00
-7046,76	342,00
-7028,98	235,00
-7011,24	191,00
-6993,53	197,00
-6975,85	118,00
-6958,20	124,00
-6940,59	114,00
-6923,01	205,00
-6905,46	348,00
-6887,94	153,00
-6870,46	418,00
-6853,01	506,00
-6835,59	376,00
-6818,21	343,00
-6800,85	267,00
-6783,53	189,00
-6766,24	33,00
-6748,98	-95,00
-6731,76	99,00
-6714,56	-26,00
-6697,40	38,00
-6680,26	59,00
-6663,16	83,00
-6646,09	128,00
-6629,05	207,00
-6612,05	237,00
-6595,07	305,00
-6578,13	170,00
-6561,21	236,00
-6544,33	160,00
-6527,47	8,00
-6510,65	106,00
-6493,86	-79,00
-6477,10	-74,00
-6460,36	33,00
-6443,66	81,00
-6426,99	34,00
-6410,35	63,00
-6393,74	131,00
-6377,16	73,00
-6360,61	148,00
-6344,09	249,00
-6327,59	154,00
-6311,13	156,00
-6294,70	140,00
-6278,29	201,00
-6261,92	274,00
-6245,58	232,00
-6229,26	315,00
-6212,97	193,00
-6196,72	236,00
-6180,49	117,00
-6164,29	-36,00
-6148,12	30,00
-6131,98	-50,00
-6115,86	15,00
-6099,78	-150,00
-6083,72	-71,00
-6067,69	-186,00
-6051,69	75,00
-6035,72	-47,00
-6019,78	168,00
-6003,87	5,00
-5987,98	79,00
-5972,12	178,00
-5956,29	144,00
-5940,49	101,00
-5924,71	118,00
-5908,96	-42,00
-5893,24	52,00
-5877,55	59,00
-5861,89	28,00
-5846,25	-17,00
-5830,64	-34,00
-5815,05	-69,00
-5799,50	128,00
-5783,97	104,00
-5768,47	140,00
-5752,99	188,00
-5737,55	184,00
-5722,12	181,00
-5706,73	192,00
-5691,36	73,00
-5676,02	7,00
-5660,71	-3,00
-5645,42	69,00
-5630,16	53,00
-5614,92	68,00
-5599,71	78,00
-5584,53	56,00
-5569,37	126,00
-5554,24	-47,00
-5539,14	142,00
-5524,06	79,00
-5509,01	39,00
-5493,98	160,00
-5478,98	137,00
-5464,00	35,00
-5449,05	201,00
-5434,13	0,00
-5419,23	5,00
-5404,36	39,00
-5389,51	76,00
-5374,69	88,00
-5359,89	90,00
-5345,12	256,00
-5330,37	153,00
-5315,65	262,00
-5300,95	89,00
-5286,28	70,00
-5271,63	62,00
-5257,01	-20,00
-5242,41	-49,00
-5227,84	-54,00
-5213,29	98,00
-5198,76	-11,00
-5184,26	15,00
-5169,79	-26,00
-5155,33	45,00
-5140,91	40,00
-5126,51	98,00
-5112,13	46,00
-5097,77	11,00
-5083,44	-54,00
-5069,13	32,00
-5054,85	46,00
-5040,59	118,00
-5026,36	50,00
-5012,15	109,00
-4997,96	106,00
-4983,80	157,00
-4969,66	119,00
-4955,54	62,00
-4941,44	139,00
-4927,37	224,00
-4913,33	256,00
-4899,30	314,00
-4885,30	292,00
-4871,33	126,00
-4857,37	120,00
-4843,44	-6,00
-4829,53	-17,00
-4815,65	188,00
-4801,79	85,00
-4787,95	129,00
-4774,13	-42,00
-4760,34	164,00
-4746,56	-51,00
-4732,82	107,00
-4719,09	48,00
-4705,38	167,00
-4691,70	193,00
-4678,04	199,00
-4664,41	208,00
-4650,79	87,00
-4637,20	111,00
-4623,63	80,00
-4610,08	117,00
-4596,56	46,00
-4583,05	93,00
-4569,57	120,00
-4556,11	-32,00
-4542,67	90,00
-4529,25	170,00
-4515,86	78,00
-4502,49	192,00
-4489,13	232,00
-4475,80	165,00
-4462,49	135,00
-4449,21	185,00
-4435,94	133,00
-4422,70	156,00
-4409,47	182,00
-4396,27	90,00
-4383,09	69,00
-4369,93	24,00
-4356,79	53,00
-4343,67	-20,00
-4330,58	132,00
-4317,50	125,00
-4304,45	135,00
-4291,41	42,00
-4278,40	95,00
-4265,41	72,00
-4252,44	217,00
-4239,49	205,00
-4226,55	139,00
-4213,65	123,00
-4200,76	175,00
-4187,89	125,00
-4175,04	149,00
-4162,21	52,00
-4149,40	115,00
-4136,61	121,00
-4123,85	166,00
-4111,10	54,00
-4098,37	-16,00
-4085,66	114,00
-4072,98	29,00
-4060,31	145,00
-4047,66	-34,00
-4035,04	86,00
-4022,43	64,00
-4009,84	120,00
-3997,27	105,00
-3984,72	-2,00
-3972,19	82,00
-3959,69	78,00
-3947,20	141,00
-3934,73	81,00
-3922,27	82,00
-3909,84	-33,00
-3897,43	174,00
-3885,04	158,00
-3872,67	71,00
-3860,31	72,00
-3847,98	99,00
-3835,66	107,00
-3823,36	84,00
-3811,09	96,00
-3798,83	170,00
-3786,59	89,00
-3774,37	6,00
-3762,17	222,00
-3749,98	10,00
-3737,82	176,00
-3725,67	124,00
-3713,55	68,00
-3701,44	126,00
-3689,35	109,00
-3677,28	109,00
-3665,22	185,00
-3653,19	-23,00
-3641,17	124,00
-3629,18	51,00
-3617,20	0,00
-3605,24	114,00
-3593,30	93,00
-3581,37	51,00
-3569,47	-2,00
-3557,58	52,00
-3545,71	-24,00
-3533,86	171,00
-3522,02	113,00
-3510,21	49,00
-3498,41	6,00
-3486,63	10,00
-3474,87	41,00
-3463,12	120,00
-3451,40	87,00
-3439,69	63,00
-3428,00	15,00
-3416,33	52,00
-3404,67	109,00
-3393,03	18,00
-3381,41	93,00
-3369,81	146,00
-3358,22	-13,00
-3346,66	176,00
-3335,10	126,00
-3323,57	153,00
-3312,06	183,00
-3300,56	125,00
-3289,08	83,00
-3277,61	-41,00
-3266,16	0,00
-3254,73	43,00
-3243,32	114,00
-3231,92	87,00
-3220,55	90,00
-3209,18	166,00
-3197,84	43,00
-3186,51	-64,00
-3175,20	17,00
-3163,90	31,00
-3152,63	22,00
-3141,36	88,00
-3130,12	71,00
-3118,89	153,00
-3107,68	82,00
-3096,49	-29,00
-3085,31	97,00
-3074,15	95,00
-3063,00	81,00
-3051,87	96,00
-3040,76	125,00
-3029,67	73,00
-3018,59	87,00
-3007,52	42,00
-2996,48	82,00
-2985,44	84,00
-2974,43	169,00
-2963,43	110,00
-2952,45	-28,00
-2941,48	85,00
-2930,53	99,00
-2919,60	188,00
-2908,68	77,00
-2897,78	16,00
-2886,89	-68,00
-2876,02	90,00
-2865,17	1,00
-2854,33	116,00
-2843,50	-10,00
-2832,70	90,00
-2821,90	133,00
-2811,13	50,00
-2800,37	84,00
-2789,62	67,00
-2778,89	152,00
-2768,18	129,00
-2757,48	141,00
-2746,80	30,00
-2736,13	119,00
-2725,48	147,00
-2714,84	67,00
-2704,22	-28,00
-2693,61	116,00
-2683,02	96,00
-2672,45	59,00
-2661,89	18,00
-2651,34	165,00
-2640,81	43,00
-2630,30	121,00
-2619,80	71,00
-2609,31	71,00
-2598,84	132,00
-2588,39	146,00
-2577,95	94,00
-2567,52	14,00
-2557,11	49,00
-2546,71	-38,00
-2536,33	10,00
-2525,97	-14,00
-2515,62	111,00
-2505,28	153,00
-2494,96	-12,00
-2484,65	-17,00
-2474,36	80,00
-2464,08	99,00
-2453,82	126,00
-2443,57	-51,00
-2433,33	33,00
-2423,11	-1,00
-2412,91	174,00
-2402,72	20,00
-2392,54	7,00
-2382,38	138,00
-2372,23	46,00
-2362,09	4227,00
-2351,97	-49,00
-2341,87	135,00
-2331,78	135,00
-2321,70	85,00
-2311,64	127,00
-2301,59	146,00
-2291,55	61,00
-2281,53	-26,00
-2271,53	106,00
-2261,53	41,00
-2251,55	204,00
-2241,59	32,00
-2231,64	166,00
-2221,70	82,00
-2211,78	61,00
-2201,87	-9,00
-2191,97	215,00
-2182,09	134,00
-2172,22	139,00
-2162,37	-95,00
-2152,53	99,00
-2142,70	2,00
-2132,89	119,00
-2123,09	-48,00
-2113,30	185,00
-2103,53	100,00
-2093,77	-24,00
-2084,02	168,00
-2074,29	203,00
-2064,57	4,00
-2054,86	47,00
-2045,17	21,00
-2035,49	5,00
-2025,82	44,00
-2016,17	112,00
-2006,53	49,00
-1996,91	45,00
-1987,29	-47,00
-1977,69	97,00
-1968,11	174,00
-1958,53	48,00
-1948,97	148,00
-1939,42	75,00
-1929,89	80,00
-1920,37	106,00
-1910,86	60,00
-1901,36	87,00
-1891,88	17,00
-1882,41	38,00
-1872,95	107,00
-1863,51	137,00
-1854,08	63,00
-1844,66	48,00
-1835,26	47,00
-1825,86	94,00
-1816,48	54,00
-1807,11	82,00
-1797,76	-15,00
-1788,42	94,00
-1779,09	115,00
-1769,77	152,00
-1760,47	64,00
-1751,17	90,00
-1741,89	26,00
-1732,63	109,00
-1723,37	189,00
-1714,13	87,00
-1704,90	88,00
-1695,68	138,00
-1686,48	25,00
-1677,29	84,00
-1668,11	173,00
-1658,94	78,00
-1649,78	71,00
-1640,64	60,00
-1631,51	152,00
-1622,39	18,00
-1613,28	95,00
-1604,19	143,00
-1595,10	152,00
-1586,03	42,00
-1576,97	255,00
-1567,93	60,00
-1558,89	82,00
-1549,87	81,00
-1540,86	52,00
-1531,86	85,00
-1522,87	65,00
-1513,90	33,00
-1504,93	46,00
-1495,98	120,00
-1487,04	50,00
-1478,12	132,00
-1469,20	40,00
-1460,30	90,00
-1451,40	96,00
-1442,52	149,00
-1433,65	87,00
-1424,80	65,00
-1415,95	69,00
-1407,12	173,00
-1398,30	2,00
-1389,48	-66,00
-1380,69	11,00
-1371,90	21,00
-1363,12	-45,00
-1354,36	171,00
-1345,60	51,00
-1336,86	-7,00
-1328,13	91,00
-1319,41	-4,00
-1310,70	77,00
-1302,01	62,00
-1293,32	81,00
-1284,65	86,00
-1275,99	56,00
-1267,33	32,00
-1258,69	36,00
-1250,06	79,00
-1241,45	204,00
-1232,84	117,00
-1224,25	35,00
-1215,66	102,00
-1207,09	55,00
-1198,53	109,00
-1189,97	32,00
-1181,43	77,00
-1172,91	-2,00
-1164,39	96,00
-1155,88	24,00
-1147,38	50,00
-1138,90	36,00
-1130,43	-16,00
-1121,96	162,00
-1113,51	72,00
-1105,07	43,00
-1096,64	48,00
-1088,22	56,00
-1079,81	18,00
-1071,41	39,00
-1063,02	130,00
-1054,65	102,00
-1046,28	72,00
-1037,92	5,00
-1029,58	86,00
-1021,24	67,00
-1012,92	191,00
-1004,61	131,00
-996,30	165,00
-988,01	148,00
-979,73	95,00
-971,46	96,00
-963,20	-45,00
-954,95	107,00
-946,71	82,00
-938,48	24,00
-930,26	43,00
-922,06	143,00
-913,86	118,00
-905,67	29,00
-897,49	136,00
-889,33	41,00
-881,17	36,00
-873,02	189,00
-864,89	29,00
-856,76	31,00
-848,65	142,00
-840,54	63,00
-832,45	106,00
-824,36	137,00
-816,29	140,00
-808,22	-52,00
-800,17	145,00
-792,12	225,00
-784,09	102,00
-776,06	102,00
-768,05	-51,00
-760,04	86,00
-752,05	104,00
-744,07	32,00
-736,09	-12,00
-728,13	78,00
-720,17	86,00
-712,23	54,00
-704,29	150,00
-696,37	77,00
-688,45	-3,00
-680,55	104,00
-672,65	167,00
-664,77	22,00
-656,89	17,00
-649,03	63,00
-641,17	0,00
-633,32	150,00
-625,49	80,00
-617,66	93,00
-609,84	95,00
-602,03	13,00
-594,23	99,00
-586,45	150,00
-578,67	78,00
-570,90	65,00
-563,14	76,00
-555,39	28,00
-547,65	16,00
-539,91	42,00
-532,19	142,00
-524,48	29,00
-516,78	64,00
-509,08	45,00
-501,40	32,00
-493,72	27,00
-486,06	169,00
-478,40	-13,00
-470,76	145,00
-463,12	24,00
-455,49	90,00
-447,87	121,00
-440,26	39,00
-432,66	80,00
-425,07	192,00
-417,49	33,00
-409,92	67,00
-402,35	171,00
-394,80	179,00
-387,25	50,00
-379,72	147,00
-372,19	142,00
-364,67	264,00
-357,17	31,00
-349,67	115,00
-342,18	111,00
-334,69	172,00
-327,22	168,00
-319,76	76,00
-312,30	148,00
-304,86	119,00
-297,42	134,00
-290,00	109,00
-282,58	191,00
-275,17	208,00
-267,77	140,00
-260,37	199,00
-252,99	42,00
-245,62	266,00
-238,25	78,00
-230,90	191,00
-223,55	167,00
-216,21	212,00
-208,88	268,00
-201,56	196,00
-194,25	389,00
-186,94	427,00
-179,65	315,00
-172,36	333,00
-165,08	476,00
-157,81	332,00
-150,55	398,00
-143,30	507,00
-136,06	448,00
-128,82	627,00
-121,60	616,00
-114,38	704,00
-107,17	753,00
-99,97	746,00
-92,78	1003,00
-85,60	1014,00
-78,42	1398,00
-71,25	1608,00
-64,10	1732,00
-56,95	2162,00
-49,81	2460,00
-42,67	2946,00
-35,55	3729,00
-28,43	4852,00
-21,33	7928,00
-14,23	25047,00
-7,14	56043,00
-0,05	55763,00
7,02	55513,00
14,09	55717,00
21,14	26195,00
28,19	10586,00
35,23	6477,00
42,27	4816,00
49,29	3963,00
56,31	3407,00
63,32	2788,00
70,32	2355,00
77,31	2006,00
84,29	1740,00
91,27	1494,00
98,23	1470,00
105,19	1284,00
112,14	1179,00
119,09	1501,00
126,02	2088,00
132,95	2257,00
139,87	2422,00
146,78	2273,00
153,68	2268,00
160,58	2227,00
167,46	2221,00
174,34	2112,00
181,21	2138,00
188,08	2145,00
194,93	1982,00
201,78	2085,00
208,62	2107,00
215,45	1987,00
222,27	2073,00
229,09	1964,00
235,90	1941,00
242,70	2003,00
249,49	1998,00
256,27	1977,00
263,05	1882,00
269,82	1998,00
276,58	1883,00
283,33	1839,00
290,08	1901,00
296,82	1731,00
303,55	1804,00
310,27	1833,00
316,98	1564,00
323,69	1718,00
330,39	1707,00
337,08	1638,00
343,76	1769,00
350,44	1666,00
357,11	1744,00
363,77	1729,00
370,42	1680,00
377,07	1506,00
383,71	1603,00
390,34	1609,00
396,96	1744,00
403,58	1666,00
410,19	1683,00
416,79	1676,00
423,38	1780,00
429,97	1677,00
436,55	1527,00
443,12	1488,00
449,68	1389,00
456,24	1560,00
462,79	1511,00
469,33	1441,00
475,86	1427,00
482,39	1492,00
488,91	1575,00
495,42	1491,00
501,93	1367,00
508,42	1387,00
514,91	1395,00
521,40	1393,00
527,87	1366,00
534,34	1344,00
540,80	1134,00
547,25	1209,00
553,70	1290,00
560,14	1295,00
566,57	1333,00
573,00	1406,00
579,41	1247,00
585,83	1350,00
592,23	1340,00
598,62	1216,00
605,01	1279,00
611,40	1271,00
617,77	1350,00
624,14	1201,00
630,50	1277,00
636,85	1217,00
643,20	1221,00
649,54	1173,00
655,87	1351,00
662,20	1212,00
668,52	1182,00
674,83	1341,00
681,13	1206,00
687,43	1097,00
693,72	1005,00
700,00	1112,00
706,28	1116,00
712,55	1098,00
718,81	1158,00
725,07	1131,00
731,32	1167,00
737,56	1252,00
743,79	1184,00
750,02	1166,00
756,24	1188,00
762,46	1216,00
768,67	1221,00
774,87	1122,00
781,06	1330,00
787,25	1095,00
793,43	1086,00
799,60	1124,00
805,77	1129,00
811,93	1110,00
818,08	1036,00
824,23	1208,00
830,37	1160,00
836,50	1109,00
842,63	1234,00
848,75	1114,00
854,87	1083,00
860,97	1144,00
867,07	1150,00
873,17	1048,00
879,25	949,00
885,33	1140,00
891,41	1159,00
897,47	1047,00
903,53	1106,00
909,59	1026,00
915,63	1136,00
921,67	976,00
927,71	1040,00
933,74	1069,00
939,76	900,00
945,77	1041,00
951,78	1008,00
957,78	997,00
963,78	1070,00
969,77	1003,00
975,75	1081,00
981,72	956,00
987,69	1028,00
993,66	1087,00
999,61	973,00
1005,56	975,00
1011,51	1110,00
1017,44	1052,00
1023,37	977,00
1029,30	1016,00
1035,22	1024,00
1041,13	944,00
1047,03	961,00
1052,93	996,00
1058,83	1173,00
1064,71	1345,00
1070,59	1228,00
1076,47	1078,00
1082,33	986,00
1088,20	1012,00
1094,05	878,00
1099,90	950,00
1105,74	952,00
1111,58	1006,00
1117,41	992,00
1123,23	1077,00
1129,05	1162,00
1134,86	1057,00
1140,67	1016,00
1146,47	902,00
1152,26	968,00
1158,05	832,00
1163,83	923,00
1169,60	917,00
1175,37	809,00
1181,13	910,00
1186,89	850,00
1192,64	848,00
1198,38	872,00
1204,12	923,00
1209,85	775,00
1215,58	685,00
1221,30	868,00
1227,02	839,00
1232,72	899,00
1238,43	969,00
1244,12	890,00
1249,81	824,00
1255,50	932,00
1261,17	908,00
1266,85	988,00
1272,51	963,00
1278,17	932,00
1283,83	1068,00
1289,47	1151,00
1295,12	1326,00
1300,75	1276,00
1306,38	1160,00
1312,01	1177,00
1317,63	958,00
1323,24	1019,00
1328,85	1046,00
1334,45	1029,00
1340,04	1061,00
1345,63	1126,00
1351,22	1135,00
1356,80	1062,00
1362,37	1064,00
1367,93	1079,00
1373,49	1060,00
1379,05	1226,00
1384,60	1038,00
1390,14	1051,00
1395,68	960,00
1401,21	1044,00
1406,74	1073,00
1412,26	1127,00
1417,77	1196,00
1423,28	1222,00
1428,78	1304,00
1434,28	1527,00
1439,77	1515,00
1445,26	1462,00
1450,74	1472,00
1456,22	1341,00
1461,68	1262,00
1467,15	1234,00
1472,61	1199,00
1478,06	1105,00
1483,51	1029,00
1488,95	989,00
1494,38	1037,00
1499,81	852,00
1505,24	1025,00
1510,65	926,00
1516,07	849,00
1521,48	753,00
1526,88	953,00
1532,27	832,00
1537,67	760,00
1543,05	848,00
1548,43	778,00
1553,81	882,00
1559,18	722,00
1564,54	902,00
1569,90	907,00
1575,25	748,00
1580,60	832,00
1585,94	900,00
1591,28	862,00
1596,61	810,00
1601,93	897,00
1607,25	795,00
1612,57	808,00
1617,88	778,00
1623,18	882,00
1628,48	780,00
1633,77	773,00
1639,06	904,00
1644,34	687,00
1649,62	766,00
1654,89	738,00
1660,16	594,00
1665,42	760,00
1670,67	721,00
1675,92	739,00
1681,17	763,00
1686,41	769,00
1691,64	719,00
1696,87	826,00
1702,10	518,00
1707,32	746,00
1712,53	735,00
1717,74	541,00
1722,94	738,00
1728,14	602,00
1733,33	626,00
1738,52	670,00
1743,70	508,00
1748,88	636,00
1754,05	528,00
1759,22	690,00
1764,38	615,00
1769,53	623,00
1774,69	492,00
1779,83	663,00
1784,97	634,00
1790,11	666,00
1795,24	689,00
1800,36	549,00
1805,48	616,00
1810,60	658,00
1815,71	514,00
1820,82	514,00
1825,92	597,00
1831,01	495,00
1836,10	567,00
1841,19	503,00
1846,26	549,00
1851,34	469,00
1856,41	664,00
1861,47	644,00
1866,53	512,00
1871,59	470,00
1876,64	470,00
1881,68	586,00
1886,72	494,00
1891,76	516,00
1896,79	601,00
1901,81	478,00
1906,83	456,00
1911,85	483,00
1916,86	582,00
1921,86	603,00
1926,86	525,00
1931,86	455,00
1936,85	492,00
1941,83	422,00
1946,81	488,00
1951,79	581,00
1956,76	542,00
1961,72	394,00
1966,68	453,00
1971,64	342,00
1976,59	431,00
1981,54	386,00
1986,48	459,00
1991,42	489,00
1996,35	418,00
2001,27	419,00
2006,20	395,00
2011,11	427,00
2016,03	428,00
2020,93	428,00
2025,84	351,00
2030,73	492,00
2035,63	451,00
2040,52	289,00
2045,40	325,00
2050,28	326,00
2055,15	455,00
2060,02	340,00
2064,89	363,00
2069,75	318,00
2074,60	488,00
2079,46	355,00
2084,30	398,00
2089,14	362,00
2093,98	311,00
2098,81	432,00
2103,64	456,00
2108,46	382,00
2113,28	477,00
2118,09	309,00
2122,90	346,00
2127,70	367,00
2132,50	427,00
2137,30	270,00
2142,09	305,00
2146,87	406,00
2151,66	330,00
2156,43	319,00
2161,20	414,00
2165,97	309,00
2170,73	321,00
2175,49	232,00
2180,24	359,00
2184,99	427,00
2189,74	379,00
2194,48	332,00
2199,21	404,00
2203,94	319,00
2208,67	415,00
2213,39	324,00
2218,11	360,00
2222,82	341,00
2227,53	260,00
2232,23	401,00
2236,93	382,00
2241,63	287,00
2246,32	387,00
2251,00	353,00
2255,68	313,00
2260,36	365,00
2265,03	248,00
2269,70	302,00
2274,36	386,00
2279,02	404,00
2283,68	159,00
2288,33	380,00
2292,97	353,00
2297,61	274,00
2302,25	267,00
2306,88	244,00
2311,51	244,00
2316,14	338,00
2320,75	312,00
2325,37	266,00
2329,98	360,00
2334,59	311,00
2339,19	267,00
2343,79	200,00
2348,38	300,00
2352,97	278,00
2357,55	261,00
2362,13	247,00
2366,71	230,00
2371,28	416,00
2375,85	200,00
2380,41	265,00
2384,97	326,00
2389,52	277,00
2394,07	256,00
2398,62	197,00
2403,16	186,00
2407,70	216,00
2412,23	247,00
2416,76	255,00
2421,29	169,00
2425,81	258,00
2430,32	357,00
2434,84	279,00
2439,34	191,00
2443,85	258,00
2448,35	316,00
2452,84	290,00
2457,33	196,00
2461,82	325,00
2466,30	263,00
2470,78	115,00
2475,25	229,00
2479,72	196,00
2484,19	263,00
2488,65	246,00
2493,11	217,00
2497,56	360,00
2502,01	212,00
2506,46	340,00
2510,90	125,00
2515,34	275,00
2519,77	298,00
2524,20	219,00
2528,62	252,00
2533,04	201,00
2537,46	211,00
2541,87	227,00
2546,28	289,00
2550,68	278,00
2555,08	163,00
2559,48	273,00
2563,87	258,00
2568,26	254,00
2572,64	177,00
2577,02	246,00
2581,40	305,00
2585,77	236,00
2590,14	247,00
2594,50	263,00
2598,86	172,00
2603,22	177,00
2607,57	221,00
2611,92	128,00
2616,26	183,00
2620,60	219,00
2624,94	320,00
2629,27	255,00
2633,60	190,00
2637,92	346,00
2642,24	237,00
2646,56	153,00
2650,87	277,00
2655,18	316,00
2659,48	194,00
2663,78	303,00
2668,08	216,00
2672,37	268,00
2676,66	261,00
2680,95	315,00
2685,23	201,00
2689,50	164,00
2693,78	168,00
2698,05	357,00
2702,31	268,00
2706,57	231,00
2710,83	264,00
2715,08	292,00
2719,33	265,00
2723,58	182,00
2727,82	257,00
2732,06	296,00
2736,29	267,00
2740,53	226,00
2744,75	148,00
2748,97	443,00
2753,19	374,00
2757,41	285,00
2761,62	223,00
2765,83	280,00
2770,03	275,00
2774,23	101,00
2778,43	181,00
2782,62	152,00
2786,81	245,00
2791,00	171,00
2795,18	279,00
2799,35	259,00
2803,53	384,00
2807,70	333,00
2811,86	263,00
2816,03	294,00
2820,19	320,00
2824,34	288,00
2828,49	404,00
2832,64	306,00
2836,78	472,00
2840,92	599,00
2845,06	750,00
2849,19	923,00
2853,32	815,00
2857,45	663,00
2861,57	825,00
2865,69	680,00
2869,80	707,00
2873,91	817,00
2878,02	762,00
2882,12	914,00
2886,22	764,00
2890,32	919,00
2894,41	837,00
2898,50	725,00
2902,58	690,00
2906,67	748,00
2910,74	759,00
2914,82	644,00
2918,89	472,00
2922,96	583,00
2927,02	545,00
2931,08	552,00
2935,13	404,00
2939,19	466,00
2943,24	434,00
2947,28	365,00
2951,32	289,00
2955,36	347,00
2959,40	218,00
2963,43	307,00
2967,46	227,00
2971,48	201,00
2975,50	364,00
2979,52	250,00
2983,53	284,00
2987,54	260,00
2991,55	71,00
2995,55	183,00
2999,55	136,00
3003,54	151,00
3007,54	126,00
3011,53	157,00
3015,51	90,00
3019,49	277,00
3023,47	54,00
3027,45	260,00
3031,42	144,00
3035,39	131,00
3039,35	105,00
3043,31	47,00
3047,27	158,00
3051,22	113,00
3055,17	170,00
3059,12	189,00
3063,06	137,00
3067,00	209,00
3070,94	197,00
3074,87	213,00
3078,80	28,00
3082,73	136,00
3086,65	70,00
3090,57	49,00
3094,49	199,00
3098,40	204,00
3102,31	36,00
3106,22	185,00
3110,12	133,00
3114,02	141,00
3117,92	90,00
3121,81	184,00
3125,70	123,00
3129,58	78,00
3133,47	104,00
3137,34	160,00
3141,22	57,00
3145,09	198,00
3148,96	104,00
3152,83	233,00
3156,69	79,00
3160,55	122,00
3164,40	108,00
3168,26	85,00
3172,10	130,00
3175,95	200,00
3179,79	135,00
3183,63	107,00
3187,47	226,00
3191,30	30,00
3195,13	57,00
3198,95	79,00
3202,78	78,00
3206,60	145,00
3210,41	89,00
3214,23	117,00
3218,03	101,00
3221,84	179,00
3225,64	78,00
3229,44	177,00
3233,24	105,00
3237,03	148,00
3240,82	140,00
3244,61	207,00
3248,39	110,00
3252,17	176,00
3255,95	83,00
3259,72	117,00
3263,49	66,00
3267,26	170,00
3271,03	183,00
3274,79	93,00
3278,54	107,00
3282,30	113,00
3286,05	200,00
3289,80	109,00
3293,54	104,00
3297,29	116,00
3301,02	253,00
3304,76	85,00
3308,49	130,00
3312,22	146,00
3315,95	124,00
3319,67	119,00
3323,39	89,00
3327,10	26,00
3330,82	236,00
3334,53	84,00
3338,24	78,00
3341,94	73,00
3345,64	108,00
3349,34	178,00
3353,03	108,00
3356,72	167,00
3360,41	42,00
3364,10	70,00
3367,78	95,00
3371,46	159,00
3375,13	112,00
3378,81	216,00
3382,48	151,00
3386,14	153,00
3389,81	122,00
3393,47	145,00
3397,12	126,00
3400,78	11,00
3404,43	126,00
3408,08	53,00
3411,72	132,00
3415,36	126,00
3419,00	99,00
3422,64	120,00
3426,27	193,00
3429,90	211,00
3433,53	126,00
3437,15	2,00
3440,77	85,00
3444,39	118,00
3448,00	144,00
3451,62	76,00
3455,22	165,00
3458,83	28,00
3462,43	105,00
3466,03	114,00
3469,63	40,00
3473,22	105,00
3476,81	83,00
3480,40	87,00
3483,99	133,00
3487,57	220,00
3491,15	64,00
3494,72	65,00
3498,29	71,00
3501,86	116,00
3505,43	137,00
3508,99	97,00
3512,56	99,00
3516,11	96,00
3519,67	79,00
3523,22	-12,00
3526,77	13,00
3530,32	30,00
3533,86	158,00
3537,40	69,00
3540,94	95,00
3544,47	32,00
3548,00	45,00
3551,53	124,00
3555,06	19,00
3558,58	98,00
3562,10	64,00
3565,62	151,00
3569,13	-32,00
3572,64	92,00
3576,15	94,00
3579,66	-5,00
3583,16	165,00
3586,66	96,00
3590,16	41,00
3593,65	98,00
3597,14	138,00
3600,63	79,00
3604,11	70,00
3607,60	65,00
3611,08	83,00
3614,55	115,00
3618,03	81,00
3621,50	39,00
3624,97	86,00
3628,43	68,00
3631,90	91,00
3635,36	82,00
3638,81	114,00
3642,27	100,00
3645,72	143,00
3649,17	132,00
3652,61	95,00
3656,06	61,00
3659,50	17,00
3662,93	98,00
3666,37	132,00
3669,80	124,00
3673,23	158,00
3676,65	78,00
3680,08	76,00
3683,50	84,00
3686,92	133,00
3690,33	38,00
3693,74	70,00
3697,15	79,00
3700,56	65,00
3703,96	82,00
3707,36	-43,00
3710,76	14,00
3714,16	166,00
3717,55	105,00
3720,94	122,00
3724,33	35,00
3727,71	-16,00
3731,10	-10,00
3734,48	77,00
3737,85	38,00
3741,23	134,00
3744,60	-9,00
3747,97	72,00
3751,33	113,00
3754,69	60,00
3758,05	25,00
3761,41	58,00
3764,77	121,00
3768,12	6,00
3771,47	91,00
3774,82	120,00
3778,16	-7,00
3781,50	1,00
3784,84	-1,00
3788,18	-1,00
>>>>>End Processed Spectral Data<<<<<
