SpectraSuite Data File
++++++++++++++++++++++++++++++++++++
Date: Wed Feb 11 17:15:20 ICT 2026
User: Administrator
Dark Spectrum Present: Yes
Reference Spectrum Present: No
Number of Sampled Component Spectra: 1
Spectrometers: MAYP113682
Integration Time (usec): 3000000 (MAYP113682)
Spectra Averaged: 1 (MAYP113682)
Boxcar Smoothing: 0 (MAYP113682)
Correct for Electrical Dark: No (MAYP113682)
Strobe/Lamp Enabled: No (MAYP113682)
Correct for Detector Non-linearity: No (MAYP113682)
Correct for Stray Light: No (MAYP113682)
Number of Pixels in Processed Spectrum: 2068
>>>>>Begin Processed Spectral Data<<<<<
-37534,58	8,00
-37414,56	-1,00
-37295,11	6,00
-37176,24	5,00
-37057,95	183,00
-36940,22	34,00
-36823,05	121,00
-36706,45	180,00
-36590,40	158,00
-36474,90	81,00
-36359,95	153,00
-36245,55	140,00
-36131,68	109,00
-36018,35	103,00
-35905,55	210,00
-35793,29	170,00
-35681,54	58,00
-35570,32	197,00
-35459,62	227,00
-35349,43	201,00
-35239,75	163,00
-35130,58	159,00
-35021,91	61,00
-34913,74	144,00
-34806,07	142,00
-34698,89	85,00
-34592,20	132,00
-34486,00	100,00
-34380,28	216,00
-34275,04	90,00
-34170,27	101,00
-34065,98	84,00
-33962,16	155,00
-33858,81	216,00
-33755,92	133,00
-33653,49	-14,00
-33551,52	135,00
-33450,01	-2,00
-33348,94	151,00
-33248,33	130,00
-33148,16	141,00
-33048,43	206,00
-32949,14	158,00
-32850,29	145,00
-32751,87	147,00
-32653,89	103,00
-32556,33	90,00
-32459,20	196,00
-32362,49	135,00
-32266,19	110,00
-32170,32	158,00
-32074,86	188,00
-31979,82	129,00
-31885,18	170,00
-31790,95	105,00
-31697,12	209,00
-31603,69	157,00
-31510,67	156,00
-31418,04	196,00
-31325,80	233,00
-31233,95	207,00
-31142,49	134,00
-31051,42	116,00
-30960,73	237,00
-30870,43	173,00
-30780,50	165,00
-30690,95	233,00
-30601,77	160,00
-30512,97	191,00
-30424,53	142,00
-30336,46	65,00
-30248,76	95,00
-30161,42	112,00
-30074,44	174,00
-29987,81	141,00
-29901,55	253,00
-29815,63	209,00
-29730,07	179,00
-29644,86	131,00
-29560,00	143,00
-29475,48	124,00
-29391,30	109,00
-29307,47	143,00
-29223,97	176,00
-29140,81	78,00
-29057,99	53,00
-28975,50	196,00
-28893,34	123,00
-28811,51	102,00
-28730,00	177,00
-28648,82	130,00
-28567,97	144,00
-28487,43	149,00
-28407,21	112,00
-28327,32	76,00
-28247,73	128,00
-28168,46	208,00
-28089,50	144,00
-28010,85	34,00
-27932,51	80,00
-27854,48	117,00
-27776,75	194,00
-27699,32	152,00
-27622,19	193,00
-27545,37	123,00
-27468,84	181,00
-27392,60	180,00
-27316,66	112,00
-27241,01	256,00
-27165,66	212,00
-27090,59	76,00
-27015,81	120,00
-26941,31	152,00
-26867,10	139,00
-26793,17	148,00
-26719,52	255,00
-26646,15	90,00
-26573,06	229,00
-26500,24	93,00
-26427,70	117,00
-26355,43	237,00
-26283,43	162,00
-26211,71	134,00
-26140,25	249,00
-26069,06	226,00
-25998,13	174,00
-25927,46	142,00
-25857,06	53,00
-25786,92	130,00
-25717,04	121,00
-25647,42	111,00
-25578,05	108,00
-25508,94	233,00
-25440,09	103,00
-25371,48	66,00
-25303,13	203,00
-25235,02	176,00
-25167,17	165,00
-25099,56	125,00
-25032,19	101,00
-24965,07	152,00
-24898,20	125,00
-24831,56	196,00
-24765,17	133,00
-24699,01	162,00
-24633,10	185,00
-24567,41	178,00
-24501,97	167,00
-24436,75	78,00
-24371,77	73,00
-24307,03	153,00
-24242,51	109,00
-24178,22	-17,00
-24114,16	178,00
-24050,32	217,00
-23986,71	199,00
-23923,32	260,00
-23860,16	123,00
-23797,22	182,00
-23734,50	53,00
-23672,00	241,00
-23609,71	148,00
-23547,65	98,00
-23485,80	176,00
-23424,16	112,00
-23362,74	216,00
-23301,53	100,00
-23240,54	114,00
-23179,75	188,00
-23119,17	149,00
-23058,80	158,00
-22998,64	63,00
-22938,68	111,00
-22878,93	48,00
-22819,39	78,00
-22760,04	169,00
-22700,90	131,00
-22641,96	255,00
-22583,22	89,00
-22524,68	127,00
-22466,33	109,00
-22408,19	155,00
-22350,23	155,00
-22292,48	139,00
-22234,92	95,00
-22177,55	43,00
-22120,37	168,00
-22063,38	176,00
-22006,58	192,00
-21949,98	188,00
-21893,56	172,00
-21837,33	152,00
-21781,28	152,00
-21725,42	170,00
-21669,74	173,00
-21614,25	183,00
-21558,94	151,00
-21503,81	151,00
-21448,86	126,00
-21394,10	196,00
-21339,51	132,00
-21285,10	192,00
-21230,86	53,00
-21176,81	193,00
-21122,93	153,00
-21069,22	116,00
-21015,69	244,00
-20962,33	176,00
-20909,14	68,00
-20856,13	257,00
-20803,28	101,00
-20750,61	173,00
-20698,10	135,00
-20645,76	141,00
-20593,59	184,00
-20541,59	190,00
-20489,75	234,00
-20438,07	208,00
-20386,56	262,00
-20335,22	153,00
-20284,03	177,00
-20233,01	142,00
-20182,15	80,00
-20131,45	108,00
-20080,91	153,00
-20030,52	152,00
-19980,30	115,00
-19930,23	94,00
-19880,32	196,00
-19830,56	154,00
-19780,96	120,00
-19731,52	163,00
-19682,23	199,00
-19633,09	-69,00
-19584,10	70,00
-19535,26	93,00
-19486,58	138,00
-19438,04	281,00
-19389,66	79,00
-19341,42	239,00
-19293,33	90,00
-19245,39	201,00
-19197,60	143,00
-19149,95	99,00
-19102,45	191,00
-19055,09	181,00
-19007,87	104,00
-18960,80	203,00
-18913,87	212,00
-18867,09	40,00
-18820,44	122,00
-18773,94	224,00
-18727,57	83,00
-18681,35	262,00
-18635,26	209,00
-18589,31	212,00
-18543,50	210,00
-18497,83	78,00
-18452,29	190,00
-18406,89	23,00
-18361,63	152,00
-18316,50	102,00
-18271,50	132,00
-18226,63	91,00
-18181,90	132,00
-18137,30	228,00
-18092,84	191,00
-18048,50	138,00
-18004,29	151,00
-17960,22	161,00
-17916,27	146,00
-17872,45	176,00
-17828,76	91,00
-17785,20	226,00
-17741,77	216,00
-17698,46	156,00
-17655,28	113,00
-17612,22	193,00
-17569,29	140,00
-17526,48	236,00
-17483,79	199,00
-17441,23	67,00
-17398,79	109,00
-17356,48	147,00
-17314,28	194,00
-17272,21	164,00
-17230,26	105,00
-17188,42	184,00
-17146,71	146,00
-17105,12	153,00
-17063,64	137,00
-17022,28	135,00
-16981,04	159,00
-16939,92	144,00
-16898,91	182,00
-16858,02	94,00
-16817,25	4,00
-16776,59	166,00
-16736,04	105,00
-16695,61	145,00
-16655,29	19,00
-16615,09	99,00
-16574,99	180,00
-16535,01	125,00
-16495,15	75,00
-16455,39	152,00
-16415,74	30,00
-16376,21	106,00
-16336,78	75,00
-16297,46	180,00
-16258,26	129,00
-16219,16	122,00
-16180,17	246,00
-16141,28	66,00
-16102,51	155,00
-16063,84	164,00
-16025,27	189,00
-15986,82	137,00
-15948,46	177,00
-15910,22	189,00
-15872,07	168,00
-15834,04	70,00
-15796,10	190,00
-15758,27	182,00
-15720,54	15,00
-15682,91	156,00
-15645,39	175,00
-15607,97	131,00
-15570,64	168,00
-15533,42	176,00
-15496,30	103,00
-15459,28	187,00
-15422,36	129,00
-15385,54	95,00
-15348,82	189,00
-15312,19	80,00
-15275,66	169,00
-15239,23	163,00
-15202,90	177,00
-15166,67	67,00
-15130,53	87,00
-15094,48	137,00
-15058,54	184,00
-15022,68	220,00
-14986,93	255,00
-14951,26	169,00
-14915,69	94,00
-14880,22	143,00
-14844,84	48,00
-14809,55	167,00
-14774,35	108,00
-14739,25	191,00
-14704,24	-33,00
-14669,32	118,00
-14634,49	190,00
-14599,75	184,00
-14565,10	132,00
-14530,55	101,00
-14496,08	66,00
-14461,70	211,00
-14427,41	145,00
-14393,21	92,00
-14359,10	39,00
-14325,07	195,00
-14291,14	143,00
-14257,29	226,00
-14223,52	82,00
-14189,85	63,00
-14156,26	171,00
-14122,76	162,00
-14089,34	170,00
-14056,01	38,00
-14022,76	104,00
-13989,60	53,00
-13956,52	101,00
-13923,53	64,00
-13890,62	115,00
-13857,79	24,00
-13825,05	117,00
-13792,39	166,00
-13759,81	121,00
-13727,31	68,00
-13694,90	189,00
-13662,57	255,00
-13630,31	104,00
-13598,14	168,00
-13566,05	70,00
-13534,05	109,00
-13502,12	140,00
-13470,27	182,00
-13438,50	60,00
-13406,80	190,00
-13375,19	123,00
-13343,66	223,00
-13312,20	211,00
-13280,83	125,00
-13249,53	182,00
-13218,30	44,00
-13187,16	123,00
-13156,09	78,00
-13125,10	156,00
-13094,18	60,00
-13063,34	183,00
-13032,58	123,00
-13001,89	155,00
-12971,28	191,00
-12940,74	10,00
-12910,27	97,00
-12879,88	210,00
-12849,57	231,00
-12819,33	182,00
-12789,16	72,00
-12759,06	207,00
-12729,04	135,00
-12699,09	-654,00
-12669,21	168,00
-12639,41	67,00
-12609,68	175,00
-12580,02	130,00
-12550,43	-9,00
-12520,91	77,00
-12491,46	128,00
-12462,08	70,00
-12432,77	121,00
-12403,54	173,00
-12374,37	182,00
-12345,27	82,00
-12316,24	171,00
-12287,29	149,00
-12258,40	250,00
-12229,57	256,00
-12200,82	205,00
-12172,14	189,00
-12143,52	158,00
-12114,97	211,00
-12086,49	178,00
-12058,07	89,00
-12029,73	197,00
-12001,44	172,00
-11973,23	135,00
-11945,08	101,00
-11917,00	192,00
-11888,98	124,00
-11861,03	153,00
-11833,15	157,00
-11805,32	250,00
-11777,57	112,00
-11749,88	275,00
-11722,25	75,00
-11694,69	160,00
-11667,19	10,00
-11639,75	148,00
-11612,38	145,00
-11585,07	-8,00
-11557,83	174,00
-11530,65	111,00
-11503,53	158,00
-11476,47	112,00
-11449,48	94,00
-11422,54	210,00
-11395,67	151,00
-11368,86	243,00
-11342,11	118,00
-11315,43	101,00
-11288,80	196,00
-11262,23	128,00
-11235,73	54,00
-11209,28	159,00
-11182,90	163,00
-11156,57	270,00
-11130,31	144,00
-11104,10	176,00
-11077,96	216,00
-11051,87	71,00
-11025,84	265,00
-10999,87	145,00
-10973,96	174,00
-10948,11	139,00
-10922,31	239,00
-10896,58	116,00
-10870,90	153,00
-10845,28	228,00
-10819,71	184,00
-10794,20	209,00
-10768,75	173,00
-10743,36	119,00
-10718,02	205,00
-10692,74	161,00
-10667,52	63,00
-10642,35	121,00
-10617,24	64,00
-10592,18	145,00
-10567,18	139,00
-10542,23	145,00
-10517,34	153,00
-10492,51	135,00
-10467,72	164,00
-10443,00	109,00
-10418,32	290,00
-10393,70	128,00
-10369,14	114,00
-10344,63	172,00
-10320,17	231,00
-10295,77	250,00
-10271,42	113,00
-10247,12	241,00
-10222,88	221,00
-10198,68	213,00
-10174,54	217,00
-10150,46	162,00
-10126,42	187,00
-10102,44	145,00
-10078,51	202,00
-10054,63	107,00
-10030,80	212,00
-10007,03	267,00
-9983,30	191,00
-9959,63	275,00
-9936,01	155,00
-9912,44	251,00
-9888,92	210,00
-9865,44	181,00
-9842,02	255,00
-9818,65	283,00
-9795,33	247,00
-9772,06	274,00
-9748,84	189,00
-9725,67	202,00
-9702,55	271,00
-9679,47	374,00
-9656,45	310,00
-9633,47	269,00
-9610,55	257,00
-9587,67	341,00
-9564,84	256,00
-9542,06	441,00
-9519,32	394,00
-9496,64	361,00
-9474,00	384,00
-9451,41	382,00
-9428,87	291,00
-9406,37	379,00
-9383,92	288,00
-9361,52	374,00
-9339,17	332,00
-9316,86	437,00
-9294,60	503,00
-9272,38	478,00
-9250,21	639,00
-9228,09	786,00
-9206,01	669,00
-9183,98	612,00
-9162,00	435,00
-9140,06	437,00
-9118,16	480,00
-9096,31	466,00
-9074,51	510,00
-9052,75	507,00
-9031,04	601,00
-9009,37	382,00
-8987,74	418,00
-8966,16	396,00
-8944,63	345,00
-8923,14	364,00
-8901,69	322,00
-8880,29	362,00
-8858,93	435,00
-8837,61	512,00
-8816,34	538,00
-8795,11	600,00
-8773,92	508,00
-8752,78	332,00
-8731,68	461,00
-8710,62	520,00
-8689,61	411,00
-8668,63	439,00
-8647,70	581,00
-8626,82	536,00
-8605,97	488,00
-8585,17	461,00
-8564,41	412,00
-8543,69	449,00
-8523,01	305,00
-8502,37	375,00
-8481,78	412,00
-8461,23	463,00
-8440,71	533,00
-8420,24	565,00
-8399,81	532,00
-8379,42	656,00
-8359,08	506,00
-8338,77	389,00
-8318,50	471,00
-8298,27	434,00
-8278,09	486,00
-8257,94	423,00
-8237,83	550,00
-8217,76	453,00
-8197,74	579,00
-8177,75	577,00
-8157,80	474,00
-8137,89	400,00
-8118,02	437,00
-8098,19	418,00
-8078,40	517,00
-8058,65	476,00
-8038,93	583,00
-8019,26	423,00
-7999,62	495,00
-7980,02	416,00
-7960,46	448,00
-7940,94	304,00
-7921,46	421,00
-7902,01	382,00
-7882,60	351,00
-7863,23	311,00
-7843,90	426,00
-7824,61	335,00
-7805,35	489,00
-7786,13	337,00
-7766,95	444,00
-7747,80	312,00
-7728,69	361,00
-7709,62	439,00
-7690,59	439,00
-7671,59	464,00
-7652,63	511,00
-7633,70	435,00
-7614,81	480,00
-7595,96	424,00
-7577,15	283,00
-7558,37	481,00
-7539,62	359,00
-7520,91	470,00
-7502,24	511,00
-7483,60	445,00
-7465,00	415,00
-7446,44	454,00
-7427,91	410,00
-7409,41	257,00
-7390,95	385,00
-7372,53	298,00
-7354,14	221,00
-7335,78	314,00
-7317,46	284,00
-7299,18	291,00
-7280,92	263,00
-7262,71	457,00
-7244,52	406,00
-7226,38	391,00
-7208,26	389,00
-7190,18	386,00
-7172,14	380,00
-7154,12	444,00
-7136,15	338,00
-7118,20	375,00
-7100,29	449,00
-7082,41	374,00
-7064,57	457,00
-7046,76	396,00
-7028,98	314,00
-7011,24	281,00
-6993,53	279,00
-6975,85	303,00
-6958,20	138,00
-6940,59	238,00
-6923,01	312,00
-6905,46	448,00
-6887,94	164,00
-6870,46	2905,00
-6853,01	426,00
-6835,59	376,00
-6818,21	270,00
-6800,85	232,00
-6783,53	298,00
-6766,24	289,00
-6748,98	178,00
-6731,76	290,00
-6714,56	122,00
-6697,40	162,00
-6680,26	130,00
-6663,16	220,00
-6646,09	350,00
-6629,05	252,00
-6612,05	365,00
-6595,07	351,00
-6578,13	271,00
-6561,21	266,00
-6544,33	230,00
-6527,47	177,00
-6510,65	281,00
-6493,86	124,00
-6477,10	-48,00
-6460,36	218,00
-6443,66	210,00
-6426,99	97,00
-6410,35	179,00
-6393,74	229,00
-6377,16	254,00
-6360,61	186,00
-6344,09	324,00
-6327,59	237,00
-6311,13	198,00
-6294,70	316,00
-6278,29	355,00
-6261,92	321,00
-6245,58	228,00
-6229,26	294,00
-6212,97	319,00
-6196,72	369,00
-6180,49	286,00
-6164,29	110,00
-6148,12	255,00
-6131,98	109,00
-6115,86	133,00
-6099,78	110,00
-6083,72	77,00
-6067,69	53,00
-6051,69	208,00
-6035,72	73,00
-6019,78	253,00
-6003,87	210,00
-5987,98	221,00
-5972,12	315,00
-5956,29	198,00
-5940,49	225,00
-5924,71	279,00
-5908,96	91,00
-5893,24	137,00
-5877,55	217,00
-5861,89	104,00
-5846,25	163,00
-5830,64	184,00
-5815,05	19,00
-5799,50	221,00
-5783,97	216,00
-5768,47	150,00
-5752,99	238,00
-5737,55	296,00
-5722,12	250,00
-5706,73	330,00
-5691,36	194,00
-5676,02	14,00
-5660,71	189,00
-5645,42	112,00
-5630,16	251,00
-5614,92	107,00
-5599,71	243,00
-5584,53	126,00
-5569,37	210,00
-5554,24	1060,00
-5539,14	210,00
-5524,06	220,00
-5509,01	157,00
-5493,98	292,00
-5478,98	180,00
-5464,00	87,00
-5449,05	148,00
-5434,13	148,00
-5419,23	258,00
-5404,36	35,00
-5389,51	205,00
-5374,69	234,00
-5359,89	282,00
-5345,12	276,00
-5330,37	169,00
-5315,65	245,00
-5300,95	218,00
-5286,28	198,00
-5271,63	167,00
-5257,01	160,00
-5242,41	147,00
-5227,84	84,00
-5213,29	232,00
-5198,76	150,00
-5184,26	65,00
-5169,79	109,00
-5155,33	167,00
-5140,91	73,00
-5126,51	214,00
-5112,13	255,00
-5097,77	126,00
-5083,44	213,00
-5069,13	208,00
-5054,85	232,00
-5040,59	263,00
-5026,36	103,00
-5012,15	233,00
-4997,96	260,00
-4983,80	152,00
-4969,66	237,00
-4955,54	102,00
-4941,44	176,00
-4927,37	219,00
-4913,33	401,00
-4899,30	343,00
-4885,30	385,00
-4871,33	171,00
-4857,37	170,00
-4843,44	202,00
-4829,53	68,00
-4815,65	271,00
-4801,79	85,00
-4787,95	177,00
-4774,13	116,00
-4760,34	182,00
-4746,56	35,00
-4732,82	147,00
-4719,09	120,00
-4705,38	338,00
-4691,70	287,00
-4678,04	342,00
-4664,41	193,00
-4650,79	245,00
-4637,20	142,00
-4623,63	221,00
-4610,08	153,00
-4596,56	258,00
-4583,05	216,00
-4569,57	205,00
-4556,11	124,00
-4542,67	165,00
-4529,25	220,00
-4515,86	273,00
-4502,49	264,00
-4489,13	264,00
-4475,80	260,00
-4462,49	119,00
-4449,21	308,00
-4435,94	167,00
-4422,70	229,00
-4409,47	186,00
-4396,27	218,00
-4383,09	223,00
-4369,93	182,00
-4356,79	131,00
-4343,67	123,00
-4330,58	282,00
-4317,50	240,00
-4304,45	206,00
-4291,41	159,00
-4278,40	179,00
-4265,41	171,00
-4252,44	211,00
-4239,49	170,00
-4226,55	255,00
-4213,65	244,00
-4200,76	238,00
-4187,89	230,00
-4175,04	218,00
-4162,21	96,00
-4149,40	34,00
-4136,61	181,00
-4123,85	138,00
-4111,10	131,00
-4098,37	43,00
-4085,66	138,00
-4072,98	243,00
-4060,31	157,00
-4047,66	134,00
-4035,04	133,00
-4022,43	153,00
-4009,84	223,00
-3997,27	144,00
-3984,72	86,00
-3972,19	97,00
-3959,69	107,00
-3947,20	132,00
-3934,73	180,00
-3922,27	159,00
-3909,84	104,00
-3897,43	259,00
-3885,04	273,00
-3872,67	67,00
-3860,31	249,00
-3847,98	142,00
-3835,66	193,00
-3823,36	98,00
-3811,09	161,00
-3798,83	183,00
-3786,59	75,00
-3774,37	147,00
-3762,17	220,00
-3749,98	115,00
-3737,82	150,00
-3725,67	164,00
-3713,55	160,00
-3701,44	155,00
-3689,35	106,00
-3677,28	162,00
-3665,22	267,00
-3653,19	28,00
-3641,17	251,00
-3629,18	66,00
-3617,20	138,00
-3605,24	252,00
-3593,30	153,00
-3581,37	91,00
-3569,47	165,00
-3557,58	69,00
-3545,71	60,00
-3533,86	195,00
-3522,02	130,00
-3510,21	59,00
-3498,41	147,00
-3486,63	123,00
-3474,87	128,00
-3463,12	201,00
-3451,40	142,00
-3439,69	155,00
-3428,00	153,00
-3416,33	126,00
-3404,67	80,00
-3393,03	93,00
-3381,41	72,00
-3369,81	174,00
-3358,22	98,00
-3346,66	149,00
-3335,10	265,00
-3323,57	172,00
-3312,06	199,00
-3300,56	121,00
-3289,08	95,00
-3277,61	65,00
-3266,16	88,00
-3254,73	165,00
-3243,32	172,00
-3231,92	107,00
-3220,55	195,00
-3209,18	171,00
-3197,84	117,00
-3186,51	57,00
-3175,20	64,00
-3163,90	98,00
-3152,63	147,00
-3141,36	190,00
-3130,12	179,00
-3118,89	224,00
-3107,68	217,00
-3096,49	56,00
-3085,31	78,00
-3074,15	41,00
-3063,00	188,00
-3051,87	197,00
-3040,76	207,00
-3029,67	117,00
-3018,59	165,00
-3007,52	185,00
-2996,48	126,00
-2985,44	156,00
-2974,43	206,00
-2963,43	95,00
-2952,45	132,00
-2941,48	263,00
-2930,53	140,00
-2919,60	220,00
-2908,68	124,00
-2897,78	129,00
-2886,89	169,00
-2876,02	91,00
-2865,17	141,00
-2854,33	182,00
-2843,50	52,00
-2832,70	185,00
-2821,90	195,00
-2811,13	148,00
-2800,37	122,00
-2789,62	210,00
-2778,89	148,00
-2768,18	253,00
-2757,48	178,00
-2746,80	163,00
-2736,13	121,00
-2725,48	199,00
-2714,84	72,00
-2704,22	138,00
-2693,61	230,00
-2683,02	173,00
-2672,45	153,00
-2661,89	102,00
-2651,34	184,00
-2640,81	115,00
-2630,30	260,00
-2619,80	210,00
-2609,31	149,00
-2598,84	164,00
-2588,39	105,00
-2577,95	139,00
-2567,52	112,00
-2557,11	73,00
-2546,71	190,00
-2536,33	154,00
-2525,97	71,00
-2515,62	180,00
-2505,28	156,00
-2494,96	-7,00
-2484,65	134,00
-2474,36	239,00
-2464,08	144,00
-2453,82	272,00
-2443,57	57,00
-2433,33	231,00
-2423,11	126,00
-2412,91	241,00
-2402,72	55,00
-2392,54	40,00
-2382,38	159,00
-2372,23	175,00
-2362,09	-9,00
-2351,97	185,00
-2341,87	195,00
-2331,78	183,00
-2321,70	210,00
-2311,64	206,00
-2301,59	260,00
-2291,55	103,00
-2281,53	78,00
-2271,53	110,00
-2261,53	57,00
-2251,55	241,00
-2241,59	163,00
-2231,64	374,00
-2221,70	157,00
-2211,78	101,00
-2201,87	105,00
-2191,97	183,00
-2182,09	152,00
-2172,22	157,00
-2162,37	19,00
-2152,53	174,00
-2142,70	38,00
-2132,89	163,00
-2123,09	151,00
-2113,30	252,00
-2103,53	186,00
-2093,77	123,00
-2084,02	123,00
-2074,29	225,00
-2064,57	-24,00
-2054,86	184,00
-2045,17	136,00
-2035,49	151,00
-2025,82	112,00
-2016,17	240,00
-2006,53	193,00
-1996,91	115,00
-1987,29	69,00
-1977,69	236,00
-1968,11	172,00
-1958,53	173,00
-1948,97	195,00
-1939,42	156,00
-1929,89	130,00
-1920,37	145,00
-1910,86	83,00
-1901,36	102,00
-1891,88	126,00
-1882,41	122,00
-1872,95	175,00
-1863,51	258,00
-1854,08	17,00
-1844,66	120,00
-1835,26	149,00
-1825,86	186,00
-1816,48	134,00
-1807,11	121,00
-1797,76	14,00
-1788,42	220,00
-1779,09	181,00
-1769,77	231,00
-1760,47	156,00
-1751,17	158,00
-1741,89	147,00
-1732,63	146,00
-1723,37	250,00
-1714,13	155,00
-1704,90	37,00
-1695,68	218,00
-1686,48	192,00
-1677,29	162,00
-1668,11	85,00
-1658,94	250,00
-1649,78	157,00
-1640,64	36,00
-1631,51	202,00
-1622,39	44,00
-1613,28	135,00
-1604,19	164,00
-1595,10	232,00
-1586,03	96,00
-1576,97	235,00
-1567,93	112,00
-1558,89	169,00
-1549,87	81,00
-1540,86	125,00
-1531,86	151,00
-1522,87	176,00
-1513,90	141,00
-1504,93	115,00
-1495,98	97,00
-1487,04	118,00
-1478,12	274,00
-1469,20	121,00
-1460,30	157,00
-1451,40	159,00
-1442,52	97,00
-1433,65	244,00
-1424,80	222,00
-1415,95	129,00
-1407,12	247,00
-1398,30	124,00
-1389,48	7,00
-1380,69	61,00
-1371,90	146,00
-1363,12	65,00
-1354,36	183,00
-1345,60	72,00
-1336,86	195,00
-1328,13	195,00
-1319,41	160,00
-1310,70	203,00
-1302,01	143,00
-1293,32	148,00
-1284,65	152,00
-1275,99	202,00
-1267,33	145,00
-1258,69	155,00
-1250,06	209,00
-1241,45	226,00
-1232,84	206,00
-1224,25	131,00
-1215,66	188,00
-1207,09	46,00
-1198,53	259,00
-1189,97	176,00
-1181,43	150,00
-1172,91	80,00
-1164,39	213,00
-1155,88	220,00
-1147,38	164,00
-1138,90	152,00
-1130,43	125,00
-1121,96	142,00
-1113,51	167,00
-1105,07	168,00
-1096,64	187,00
-1088,22	237,00
-1079,81	167,00
-1071,41	187,00
-1063,02	244,00
-1054,65	103,00
-1046,28	216,00
-1037,92	186,00
-1029,58	136,00
-1021,24	147,00
-1012,92	230,00
-1004,61	205,00
-996,30	248,00
-988,01	228,00
-979,73	204,00
-971,46	241,00
-963,20	103,00
-954,95	183,00
-946,71	166,00
-938,48	184,00
-930,26	68,00
-922,06	179,00
-913,86	191,00
-905,67	141,00
-897,49	174,00
-889,33	102,00
-881,17	182,00
-873,02	230,00
-864,89	115,00
-856,76	241,00
-848,65	238,00
-840,54	179,00
-832,45	266,00
-824,36	157,00
-816,29	200,00
-808,22	129,00
-800,17	209,00
-792,12	222,00
-784,09	114,00
-776,06	148,00
-768,05	110,00
-760,04	236,00
-752,05	282,00
-744,07	126,00
-736,09	93,00
-728,13	198,00
-720,17	121,00
-712,23	138,00
-704,29	173,00
-696,37	213,00
-688,45	92,00
-680,55	243,00
-672,65	226,00
-664,77	154,00
-656,89	214,00
-649,03	92,00
-641,17	181,00
-633,32	203,00
-625,49	251,00
-617,66	126,00
-609,84	205,00
-602,03	118,00
-594,23	145,00
-586,45	205,00
-578,67	173,00
-570,90	249,00
-563,14	200,00
-555,39	186,00
-547,65	170,00
-539,91	85,00
-532,19	274,00
-524,48	118,00
-516,78	154,00
-509,08	183,00
-501,40	87,00
-493,72	205,00
-486,06	202,00
-478,40	176,00
-470,76	269,00
-463,12	172,00
-455,49	205,00
-447,87	212,00
-440,26	198,00
-432,66	198,00
-425,07	223,00
-417,49	153,00
-409,92	128,00
-402,35	232,00
-394,80	299,00
-387,25	178,00
-379,72	298,00
-372,19	206,00
-364,67	353,00
-357,17	261,00
-349,67	284,00
-342,18	261,00
-334,69	240,00
-327,22	208,00
-319,76	288,00
-312,30	266,00
-304,86	337,00
-297,42	311,00
-290,00	224,00
-282,58	180,00
-275,17	292,00
-267,77	220,00
-260,37	338,00
-252,99	252,00
-245,62	391,00
-238,25	298,00
-230,90	405,00
-223,55	392,00
-216,21	363,00
-208,88	544,00
-201,56	548,00
-194,25	536,00
-186,94	690,00
-179,65	769,00
-172,36	693,00
-165,08	813,00
-157,81	874,00
-150,55	887,00
-143,30	1096,00
-136,06	1103,00
-128,82	1278,00
-121,60	1373,00
-114,38	1484,00
-107,17	1742,00
-99,97	1845,00
-92,78	2280,00
-85,60	2358,00
-78,42	2873,00
-71,25	3309,00
-64,10	3816,00
-56,95	4381,00
-49,81	5362,00
-42,67	6468,00
-35,55	8054,00
-28,43	10567,00
-21,33	17344,00
-14,23	53237,00
-7,14	56043,00
-0,05	55763,00
7,02	55513,00
14,09	55717,00
21,14	51749,00
28,19	23343,00
35,23	14414,00
42,27	10585,00
49,29	8815,00
56,31	7341,00
63,32	6121,00
70,32	4999,00
77,31	4286,00
84,29	3684,00
91,27	3181,00
98,23	2910,00
105,19	2554,00
112,14	2465,00
119,09	2865,00
126,02	3441,00
132,95	3466,00
139,87	3275,00
146,78	3127,00
153,68	3091,00
160,58	2805,00
167,46	2858,00
174,34	2644,00
181,21	2683,00
188,08	2626,00
194,93	2489,00
201,78	2648,00
208,62	2481,00
215,45	2453,00
222,27	2474,00
229,09	2381,00
235,90	2314,00
242,70	2251,00
249,49	2304,00
256,27	2160,00
263,05	2272,00
269,82	2206,00
276,58	2200,00
283,33	2116,00
290,08	2211,00
296,82	2017,00
303,55	2030,00
310,27	2074,00
316,98	1929,00
323,69	1927,00
330,39	1969,00
337,08	1949,00
343,76	1944,00
350,44	1953,00
357,11	1863,00
363,77	1832,00
370,42	1899,00
377,07	1801,00
383,71	1802,00
390,34	1789,00
396,96	1874,00
403,58	1924,00
410,19	1880,00
416,79	2051,00
423,38	2140,00
429,97	1855,00
436,55	1680,00
443,12	1595,00
449,68	1675,00
456,24	1609,00
462,79	1571,00
469,33	1600,00
475,86	1551,00
482,39	1616,00
488,91	1636,00
495,42	1463,00
501,93	1319,00
508,42	1467,00
514,91	1510,00
521,40	1589,00
527,87	1427,00
534,34	1489,00
540,80	1203,00
547,25	1389,00
553,70	1438,00
560,14	1390,00
566,57	1381,00
573,00	1419,00
579,41	1375,00
585,83	1538,00
592,23	1380,00
598,62	1316,00
605,01	1340,00
611,40	1313,00
617,77	1460,00
624,14	1340,00
630,50	1349,00
636,85	1312,00
643,20	1300,00
649,54	1313,00
655,87	1336,00
662,20	1297,00
668,52	1310,00
674,83	1402,00
681,13	1330,00
687,43	1237,00
693,72	1166,00
700,00	1266,00
706,28	1296,00
712,55	1313,00
718,81	1190,00
725,07	1372,00
731,32	1310,00
737,56	1372,00
743,79	1402,00
750,02	1390,00
756,24	1287,00
762,46	1290,00
768,67	1329,00
774,87	1189,00
781,06	1369,00
787,25	1291,00
793,43	1361,00
799,60	1304,00
805,77	1333,00
811,93	1297,00
818,08	1259,00
824,23	1399,00
830,37	1358,00
836,50	1303,00
842,63	1390,00
848,75	1315,00
854,87	1301,00
860,97	1293,00
867,07	1422,00
873,17	1300,00
879,25	1361,00
885,33	1352,00
891,41	1328,00
897,47	1313,00
903,53	1204,00
909,59	1044,00
915,63	1280,00
921,67	1164,00
927,71	1310,00
933,74	1178,00
939,76	1140,00
945,77	1111,00
951,78	1152,00
957,78	1078,00
963,78	1225,00
969,77	1102,00
975,75	1009,00
981,72	1182,00
987,69	1453,00
993,66	1195,00
999,61	1155,00
1005,56	1052,00
1011,51	1213,00
1017,44	1078,00
1023,37	1124,00
1029,30	1083,00
1035,22	1197,00
1041,13	1114,00
1047,03	1173,00
1052,93	1205,00
1058,83	1623,00
1064,71	1769,00
1070,59	1600,00
1076,47	1274,00
1082,33	1229,00
1088,20	1209,00
1094,05	1120,00
1099,90	1165,00
1105,74	1072,00
1111,58	1209,00
1117,41	1211,00
1123,23	1282,00
1129,05	1607,00
1134,86	1382,00
1140,67	1287,00
1146,47	1189,00
1152,26	1105,00
1158,05	997,00
1163,83	1091,00
1169,60	1100,00
1175,37	1051,00
1181,13	1025,00
1186,89	1025,00
1192,64	919,00
1198,38	1157,00
1204,12	1088,00
1209,85	987,00
1215,58	792,00
1221,30	1093,00
1227,02	1058,00
1232,72	1041,00
1238,43	1096,00
1244,12	969,00
1249,81	1050,00
1255,50	1062,00
1261,17	1068,00
1266,85	1101,00
1272,51	1145,00
1278,17	1038,00
1283,83	1343,00
1289,47	1649,00
1295,12	1915,00
1300,75	1821,00
1306,38	1615,00
1312,01	1435,00
1317,63	1309,00
1323,24	1262,00
1328,85	1310,00
1334,45	1282,00
1340,04	1255,00
1345,63	1242,00
1351,22	1314,00
1356,80	1126,00
1362,37	1349,00
1367,93	1331,00
1373,49	1375,00
1379,05	1377,00
1384,60	1324,00
1390,14	1267,00
1395,68	1308,00
1401,21	1261,00
1406,74	1388,00
1412,26	1349,00
1417,77	1554,00
1423,28	1561,00
1428,78	1745,00
1434,28	1922,00
1439,77	2137,00
1445,26	2115,00
1450,74	2087,00
1456,22	1961,00
1461,68	1813,00
1467,15	1830,00
1472,61	1631,00
1478,06	1442,00
1483,51	1388,00
1488,95	1291,00
1494,38	1260,00
1499,81	1158,00
1505,24	1179,00
1510,65	1154,00
1516,07	1037,00
1521,48	1005,00
1526,88	1089,00
1532,27	914,00
1537,67	1047,00
1543,05	1092,00
1548,43	1149,00
1553,81	1069,00
1559,18	867,00
1564,54	991,00
1569,90	966,00
1575,25	993,00
1580,60	1040,00
1585,94	1098,00
1591,28	964,00
1596,61	1012,00
1601,93	965,00
1607,25	984,00
1612,57	855,00
1617,88	939,00
1623,18	962,00
1628,48	913,00
1633,77	967,00
1639,06	1043,00
1644,34	873,00
1649,62	1000,00
1654,89	948,00
1660,16	862,00
1665,42	903,00
1670,67	897,00
1675,92	848,00
1681,17	971,00
1686,41	942,00
1691,64	795,00
1696,87	891,00
1702,10	829,00
1707,32	852,00
1712,53	921,00
1717,74	825,00
1722,94	892,00
1728,14	793,00
1733,33	784,00
1738,52	697,00
1743,70	764,00
1748,88	804,00
1754,05	610,00
1759,22	910,00
1764,38	784,00
1769,53	729,00
1774,69	622,00
1779,83	721,00
1784,97	834,00
1790,11	798,00
1795,24	803,00
1800,36	714,00
1805,48	820,00
1810,60	682,00
1815,71	737,00
1820,82	675,00
1825,92	643,00
1831,01	728,00
1836,10	806,00
1841,19	655,00
1846,26	583,00
1851,34	595,00
1856,41	717,00
1861,47	713,00
1866,53	644,00
1871,59	738,00
1876,64	685,00
1881,68	652,00
1886,72	691,00
1891,76	675,00
1896,79	726,00
1901,81	568,00
1906,83	609,00
1911,85	585,00
1916,86	700,00
1921,86	652,00
1926,86	657,00
1931,86	560,00
1936,85	577,00
1941,83	613,00
1946,81	489,00
1951,79	625,00
1956,76	630,00
1961,72	581,00
1966,68	668,00
1971,64	519,00
1976,59	528,00
1981,54	537,00
1986,48	655,00
1991,42	515,00
1996,35	680,00
2001,27	505,00
2006,20	562,00
2011,11	581,00
2016,03	645,00
2020,93	568,00
2025,84	444,00
2030,73	563,00
2035,63	467,00
2040,52	542,00
2045,40	527,00
2050,28	512,00
2055,15	477,00
2060,02	443,00
2064,89	588,00
2069,75	479,00
2074,60	622,00
2079,46	471,00
2084,30	413,00
2089,14	502,00
2093,98	420,00
2098,81	509,00
2103,64	581,00
2108,46	593,00
2113,28	642,00
2118,09	482,00
2122,90	585,00
2127,70	559,00
2132,50	651,00
2137,30	488,00
2142,09	455,00
2146,87	537,00
2151,66	519,00
2156,43	556,00
2161,20	552,00
2165,97	434,00
2170,73	451,00
2175,49	476,00
2180,24	578,00
2184,99	559,00
2189,74	570,00
2194,48	487,00
2199,21	589,00
2203,94	489,00
2208,67	544,00
2213,39	401,00
2218,11	458,00
2222,82	457,00
2227,53	405,00
2232,23	464,00
2236,93	561,00
2241,63	453,00
2246,32	527,00
2251,00	496,00
2255,68	527,00
2260,36	518,00
2265,03	446,00
2269,70	384,00
2274,36	450,00
2279,02	573,00
2283,68	376,00
2288,33	495,00
2292,97	502,00
2297,61	435,00
2302,25	316,00
2306,88	370,00
2311,51	351,00
2316,14	479,00
2320,75	362,00
2325,37	363,00
2329,98	431,00
2334,59	404,00
2339,19	452,00
2343,79	293,00
2348,38	391,00
2352,97	426,00
2357,55	492,00
2362,13	447,00
2366,71	376,00
2371,28	489,00
2375,85	357,00
2380,41	429,00
2384,97	352,00
2389,52	339,00
2394,07	335,00
2398,62	365,00
2403,16	346,00
2407,70	416,00
2412,23	408,00
2416,76	440,00
2421,29	373,00
2425,81	222,00
2430,32	478,00
2434,84	365,00
2439,34	370,00
2443,85	377,00
2448,35	463,00
2452,84	438,00
2457,33	332,00
2461,82	396,00
2466,30	424,00
2470,78	339,00
2475,25	360,00
2479,72	298,00
2484,19	342,00
2488,65	375,00
2493,11	289,00
2497,56	514,00
2502,01	345,00
2506,46	403,00
2510,90	284,00
2515,34	326,00
2519,77	430,00
2524,20	340,00
2528,62	449,00
2533,04	327,00
2537,46	372,00
2541,87	327,00
2546,28	361,00
2550,68	375,00
2555,08	380,00
2559,48	389,00
2563,87	327,00
2568,26	335,00
2572,64	294,00
2577,02	377,00
2581,40	380,00
2585,77	312,00
2590,14	421,00
2594,50	420,00
2598,86	369,00
2603,22	303,00
2607,57	320,00
2611,92	310,00
2616,26	323,00
2620,60	350,00
2624,94	425,00
2629,27	239,00
2633,60	340,00
2637,92	391,00
2642,24	303,00
2646,56	416,00
2650,87	389,00
2655,18	429,00
2659,48	281,00
2663,78	344,00
2668,08	332,00
2672,37	350,00
2676,66	372,00
2680,95	469,00
2685,23	360,00
2689,50	345,00
2693,78	324,00
2698,05	415,00
2702,31	427,00
2706,57	377,00
2710,83	380,00
2715,08	562,00
2719,33	455,00
2723,58	488,00
2727,82	450,00
2732,06	422,00
2736,29	413,00
2740,53	416,00
2744,75	319,00
2748,97	498,00
2753,19	362,00
2757,41	489,00
2761,62	397,00
2765,83	459,00
2770,03	340,00
2774,23	249,00
2778,43	358,00
2782,62	398,00
2786,81	335,00
2791,00	440,00
2795,18	546,00
2799,35	451,00
2803,53	519,00
2807,70	499,00
2811,86	412,00
2816,03	481,00
2820,19	493,00
2824,34	538,00
2828,49	594,00
2832,64	636,00
2836,78	826,00
2840,92	1016,00
2845,06	1239,00
2849,19	1467,00
2853,32	1439,00
2857,45	1479,00
2861,57	1397,00
2865,69	1415,00
2869,80	1260,00
2873,91	1318,00
2878,02	1519,00
2882,12	1556,00
2886,22	1594,00
2890,32	1460,00
2894,41	1438,00
2898,50	1286,00
2902,58	1199,00
2906,67	1279,00
2910,74	1240,00
2914,82	1137,00
2918,89	941,00
2922,96	1023,00
2927,02	949,00
2931,08	953,00
2935,13	711,00
2939,19	856,00
2943,24	761,00
2947,28	709,00
2951,32	531,00
2955,36	500,00
2959,40	474,00
2963,43	552,00
2967,46	365,00
2971,48	442,00
2975,50	442,00
2979,52	365,00
2983,53	439,00
2987,54	376,00
2991,55	350,00
2995,55	306,00
2999,55	261,00
3003,54	278,00
3007,54	323,00
3011,53	196,00
3015,51	267,00
3019,49	395,00
3023,47	167,00
3027,45	230,00
3031,42	286,00
3035,39	304,00
3039,35	210,00
3043,31	192,00
3047,27	256,00
3051,22	253,00
3055,17	371,00
3059,12	287,00
3063,06	223,00
3067,00	288,00
3070,94	258,00
3074,87	315,00
3078,80	186,00
3082,73	251,00
3086,65	281,00
3090,57	166,00
3094,49	246,00
3098,40	226,00
3102,31	247,00
3106,22	316,00
3110,12	172,00
3114,02	232,00
3117,92	248,00
3121,81	215,00
3125,70	162,00
3129,58	202,00
3133,47	227,00
3137,34	252,00
3141,22	117,00
3145,09	282,00
3148,96	175,00
3152,83	276,00
3156,69	151,00
3160,55	141,00
3164,40	207,00
3168,26	263,00
3172,10	283,00
3175,95	297,00
3179,79	213,00
3183,63	239,00
3187,47	250,00
3191,30	154,00
3195,13	86,00
3198,95	283,00
3202,78	203,00
3206,60	176,00
3210,41	193,00
3214,23	287,00
3218,03	187,00
3221,84	161,00
3225,64	227,00
3229,44	273,00
3233,24	200,00
3237,03	199,00
3240,82	249,00
3244,61	235,00
3248,39	250,00
3252,17	319,00
3255,95	199,00
3259,72	281,00
3263,49	235,00
3267,26	221,00
3271,03	183,00
3274,79	158,00
3278,54	239,00
3282,30	210,00
3286,05	247,00
3289,80	121,00
3293,54	228,00
3297,29	242,00
3301,02	334,00
3304,76	171,00
3308,49	194,00
3312,22	264,00
3315,95	176,00
3319,67	194,00
3323,39	203,00
3327,10	230,00
3330,82	311,00
3334,53	188,00
3338,24	240,00
3341,94	270,00
3345,64	201,00
3349,34	286,00
3353,03	190,00
3356,72	225,00
3360,41	257,00
3364,10	186,00
3367,78	180,00
3371,46	234,00
3375,13	198,00
3378,81	326,00
3382,48	282,00
3386,14	166,00
3389,81	208,00
3393,47	202,00
3397,12	256,00
3400,78	197,00
3404,43	238,00
3408,08	141,00
3411,72	165,00
3415,36	158,00
3419,00	207,00
3422,64	261,00
3426,27	134,00
3429,90	292,00
3433,53	203,00
3437,15	-39,00
3440,77	163,00
3444,39	102,00
3448,00	235,00
3451,62	138,00
3455,22	152,00
3458,83	182,00
3462,43	119,00
3466,03	135,00
3469,63	94,00
3473,22	144,00
3476,81	178,00
3480,40	129,00
3483,99	201,00
3487,57	284,00
3491,15	94,00
3494,72	189,00
3498,29	204,00
3501,86	147,00
3505,43	236,00
3508,99	145,00
3512,56	232,00
3516,11	174,00
3519,67	218,00
3523,22	182,00
3526,77	120,00
3530,32	133,00
3533,86	189,00
3537,40	92,00
3540,94	215,00
3544,47	180,00
3548,00	109,00
3551,53	105,00
3555,06	26,00
3558,58	171,00
3562,10	157,00
3565,62	186,00
3569,13	72,00
3572,64	150,00
3576,15	159,00
3579,66	115,00
3583,16	244,00
3586,66	100,00
3590,16	196,00
3593,65	107,00
3597,14	187,00
3600,63	111,00
3604,11	118,00
3607,60	138,00
3611,08	155,00
3614,55	199,00
3618,03	155,00
3621,50	34,00
3624,97	167,00
3628,43	108,00
3631,90	120,00
3635,36	145,00
3638,81	118,00
3642,27	121,00
3645,72	163,00
3649,17	197,00
3652,61	133,00
3656,06	101,00
3659,50	44,00
3662,93	110,00
3666,37	268,00
3669,80	106,00
3673,23	203,00
3676,65	145,00
3680,08	196,00
3683,50	180,00
3686,92	166,00
3690,33	102,00
3693,74	123,00
3697,15	116,00
3700,56	97,00
3703,96	150,00
3707,36	128,00
3710,76	152,00
3714,16	135,00
3717,55	159,00
3720,94	107,00
3724,33	106,00
3727,71	33,00
3731,10	110,00
3734,48	203,00
3737,85	35,00
3741,23	95,00
3744,60	151,00
3747,97	86,00
3751,33	179,00
3754,69	105,00
3758,05	135,00
3761,41	153,00
3764,77	124,00
3768,12	104,00
3771,47	172,00
3774,82	152,00
3778,16	3,00
3781,50	8,00
3784,84	8,00
3788,18	-3,00
>>>>>End Processed Spectral Data<<<<<
