SpectraSuite Data File
++++++++++++++++++++++++++++++++++++
Date: Mon Jan 05 16:23:55 ICT 2026
User: Administrator
Dark Spectrum Present: Yes
Reference Spectrum Present: No
Number of Sampled Component Spectra: 1
Spectrometers: MAYP113682
Integration Time (usec): 3000000 (MAYP113682)
Spectra Averaged: 1 (MAYP113682)
Boxcar Smoothing: 0 (MAYP113682)
Correct for Electrical Dark: No (MAYP113682)
Strobe/Lamp Enabled: No (MAYP113682)
Correct for Detector Non-linearity: No (MAYP113682)
Correct for Stray Light: No (MAYP113682)
Number of Pixels in Processed Spectrum: 2068
>>>>>Begin Processed Spectral Data<<<<<
-37534,58	7,00
-37414,56	-4,00
-37295,11	4,00
-37176,24	-1,00
-37057,95	166,00
-36940,22	238,00
-36823,05	236,00
-36706,45	315,00
-36590,40	299,00
-36474,90	308,00
-36359,95	310,00
-36245,55	315,00
-36131,68	269,00
-36018,35	341,00
-35905,55	283,00
-35793,29	360,00
-35681,54	246,00
-35570,32	360,00
-35459,62	326,00
-35349,43	371,00
-35239,75	327,00
-35130,58	357,00
-35021,91	306,00
-34913,74	332,00
-34806,07	301,00
-34698,89	293,00
-34592,20	267,00
-34486,00	297,00
-34380,28	369,00
-34275,04	238,00
-34170,27	274,00
-34065,98	341,00
-33962,16	324,00
-33858,81	368,00
-33755,92	317,00
-33653,49	484,00
-33551,52	416,00
-33450,01	392,00
-33348,94	328,00
-33248,33	246,00
-33148,16	326,00
-33048,43	320,00
-32949,14	439,00
-32850,29	355,00
-32751,87	259,00
-32653,89	380,00
-32556,33	322,00
-32459,20	290,00
-32362,49	338,00
-32266,19	289,00
-32170,32	260,00
-32074,86	242,00
-31979,82	342,00
-31885,18	464,00
-31790,95	400,00
-31697,12	394,00
-31603,69	368,00
-31510,67	361,00
-31418,04	288,00
-31325,80	359,00
-31233,95	291,00
-31142,49	311,00
-31051,42	288,00
-30960,73	428,00
-30870,43	266,00
-30780,50	364,00
-30690,95	342,00
-30601,77	419,00
-30512,97	367,00
-30424,53	354,00
-30336,46	277,00
-30248,76	367,00
-30161,42	385,00
-30074,44	366,00
-29987,81	360,00
-29901,55	398,00
-29815,63	266,00
-29730,07	368,00
-29644,86	472,00
-29560,00	344,00
-29475,48	369,00
-29391,30	392,00
-29307,47	390,00
-29223,97	324,00
-29140,81	393,00
-29057,99	347,00
-28975,50	305,00
-28893,34	381,00
-28811,51	399,00
-28730,00	351,00
-28648,82	327,00
-28567,97	295,00
-28487,43	278,00
-28407,21	286,00
-28327,32	304,00
-28247,73	364,00
-28168,46	286,00
-28089,50	439,00
-28010,85	197,00
-27932,51	285,00
-27854,48	233,00
-27776,75	306,00
-27699,32	394,00
-27622,19	367,00
-27545,37	375,00
-27468,84	329,00
-27392,60	336,00
-27316,66	352,00
-27241,01	356,00
-27165,66	366,00
-27090,59	253,00
-27015,81	416,00
-26941,31	406,00
-26867,10	300,00
-26793,17	386,00
-26719,52	329,00
-26646,15	293,00
-26573,06	253,00
-26500,24	364,00
-26427,70	392,00
-26355,43	263,00
-26283,43	398,00
-26211,71	322,00
-26140,25	324,00
-26069,06	371,00
-25998,13	289,00
-25927,46	327,00
-25857,06	261,00
-25786,92	286,00
-25717,04	290,00
-25647,42	383,00
-25578,05	336,00
-25508,94	291,00
-25440,09	360,00
-25371,48	375,00
-25303,13	351,00
-25235,02	367,00
-25167,17	334,00
-25099,56	327,00
-25032,19	374,00
-24965,07	252,00
-24898,20	249,00
-24831,56	257,00
-24765,17	369,00
-24699,01	288,00
-24633,10	411,00
-24567,41	404,00
-24501,97	307,00
-24436,75	302,00
-24371,77	310,00
-24307,03	238,00
-24242,51	355,00
-24178,22	293,00
-24114,16	330,00
-24050,32	346,00
-23986,71	344,00
-23923,32	435,00
-23860,16	394,00
-23797,22	349,00
-23734,50	355,00
-23672,00	347,00
-23609,71	336,00
-23547,65	275,00
-23485,80	389,00
-23424,16	227,00
-23362,74	489,00
-23301,53	376,00
-23240,54	202,00
-23179,75	301,00
-23119,17	272,00
-23058,80	313,00
-22998,64	384,00
-22938,68	355,00
-22878,93	276,00
-22819,39	280,00
-22760,04	308,00
-22700,90	305,00
-22641,96	278,00
-22583,22	315,00
-22524,68	326,00
-22466,33	294,00
-22408,19	342,00
-22350,23	273,00
-22292,48	351,00
-22234,92	284,00
-22177,55	385,00
-22120,37	407,00
-22063,38	264,00
-22006,58	325,00
-21949,98	292,00
-21893,56	259,00
-21837,33	306,00
-21781,28	329,00
-21725,42	389,00
-21669,74	381,00
-21614,25	331,00
-21558,94	288,00
-21503,81	362,00
-21448,86	338,00
-21394,10	324,00
-21339,51	315,00
-21285,10	310,00
-21230,86	313,00
-21176,81	237,00
-21122,93	284,00
-21069,22	255,00
-21015,69	338,00
-20962,33	397,00
-20909,14	344,00
-20856,13	388,00
-20803,28	381,00
-20750,61	319,00
-20698,10	229,00
-20645,76	343,00
-20593,59	277,00
-20541,59	401,00
-20489,75	314,00
-20438,07	196,00
-20386,56	320,00
-20335,22	281,00
-20284,03	337,00
-20233,01	302,00
-20182,15	259,00
-20131,45	357,00
-20080,91	194,00
-20030,52	377,00
-19980,30	323,00
-19930,23	287,00
-19880,32	306,00
-19830,56	248,00
-19780,96	327,00
-19731,52	361,00
-19682,23	382,00
-19633,09	292,00
-19584,10	179,00
-19535,26	369,00
-19486,58	412,00
-19438,04	322,00
-19389,66	389,00
-19341,42	309,00
-19293,33	246,00
-19245,39	292,00
-19197,60	414,00
-19149,95	365,00
-19102,45	333,00
-19055,09	336,00
-19007,87	327,00
-18960,80	329,00
-18913,87	325,00
-18867,09	313,00
-18820,44	412,00
-18773,94	254,00
-18727,57	383,00
-18681,35	280,00
-18635,26	323,00
-18589,31	298,00
-18543,50	238,00
-18497,83	309,00
-18452,29	310,00
-18406,89	270,00
-18361,63	398,00
-18316,50	441,00
-18271,50	328,00
-18226,63	340,00
-18181,90	317,00
-18137,30	397,00
-18092,84	338,00
-18048,50	349,00
-18004,29	251,00
-17960,22	316,00
-17916,27	281,00
-17872,45	327,00
-17828,76	456,00
-17785,20	266,00
-17741,77	381,00
-17698,46	401,00
-17655,28	250,00
-17612,22	303,00
-17569,29	356,00
-17526,48	373,00
-17483,79	399,00
-17441,23	254,00
-17398,79	330,00
-17356,48	309,00
-17314,28	485,00
-17272,21	306,00
-17230,26	382,00
-17188,42	323,00
-17146,71	437,00
-17105,12	246,00
-17063,64	321,00
-17022,28	328,00
-16981,04	280,00
-16939,92	418,00
-16898,91	385,00
-16858,02	286,00
-16817,25	331,00
-16776,59	392,00
-16736,04	320,00
-16695,61	407,00
-16655,29	280,00
-16615,09	280,00
-16574,99	277,00
-16535,01	287,00
-16495,15	368,00
-16455,39	301,00
-16415,74	277,00
-16376,21	312,00
-16336,78	309,00
-16297,46	280,00
-16258,26	237,00
-16219,16	325,00
-16180,17	346,00
-16141,28	384,00
-16102,51	383,00
-16063,84	231,00
-16025,27	363,00
-15986,82	226,00
-15948,46	302,00
-15910,22	344,00
-15872,07	336,00
-15834,04	352,00
-15796,10	328,00
-15758,27	450,00
-15720,54	321,00
-15682,91	298,00
-15645,39	387,00
-15607,97	384,00
-15570,64	293,00
-15533,42	402,00
-15496,30	383,00
-15459,28	291,00
-15422,36	290,00
-15385,54	218,00
-15348,82	327,00
-15312,19	360,00
-15275,66	337,00
-15239,23	409,00
-15202,90	318,00
-15166,67	382,00
-15130,53	328,00
-15094,48	294,00
-15058,54	279,00
-15022,68	294,00
-14986,93	288,00
-14951,26	420,00
-14915,69	381,00
-14880,22	301,00
-14844,84	365,00
-14809,55	288,00
-14774,35	241,00
-14739,25	325,00
-14704,24	364,00
-14669,32	350,00
-14634,49	254,00
-14599,75	340,00
-14565,10	310,00
-14530,55	380,00
-14496,08	397,00
-14461,70	370,00
-14427,41	317,00
-14393,21	270,00
-14359,10	312,00
-14325,07	306,00
-14291,14	320,00
-14257,29	347,00
-14223,52	373,00
-14189,85	339,00
-14156,26	339,00
-14122,76	327,00
-14089,34	279,00
-14056,01	381,00
-14022,76	291,00
-13989,60	360,00
-13956,52	347,00
-13923,53	306,00
-13890,62	334,00
-13857,79	317,00
-13825,05	293,00
-13792,39	244,00
-13759,81	338,00
-13727,31	359,00
-13694,90	422,00
-13662,57	402,00
-13630,31	345,00
-13598,14	301,00
-13566,05	235,00
-13534,05	332,00
-13502,12	295,00
-13470,27	411,00
-13438,50	420,00
-13406,80	345,00
-13375,19	362,00
-13343,66	346,00
-13312,20	336,00
-13280,83	243,00
-13249,53	342,00
-13218,30	291,00
-13187,16	339,00
-13156,09	414,00
-13125,10	323,00
-13094,18	349,00
-13063,34	339,00
-13032,58	330,00
-13001,89	349,00
-12971,28	388,00
-12940,74	297,00
-12910,27	348,00
-12879,88	349,00
-12849,57	423,00
-12819,33	345,00
-12789,16	408,00
-12759,06	250,00
-12729,04	249,00
-12699,09	928,00
-12669,21	282,00
-12639,41	240,00
-12609,68	269,00
-12580,02	282,00
-12550,43	407,00
-12520,91	278,00
-12491,46	305,00
-12462,08	227,00
-12432,77	370,00
-12403,54	282,00
-12374,37	272,00
-12345,27	412,00
-12316,24	355,00
-12287,29	254,00
-12258,40	296,00
-12229,57	446,00
-12200,82	224,00
-12172,14	329,00
-12143,52	221,00
-12114,97	350,00
-12086,49	283,00
-12058,07	369,00
-12029,73	282,00
-12001,44	403,00
-11973,23	348,00
-11945,08	341,00
-11917,00	361,00
-11888,98	211,00
-11861,03	467,00
-11833,15	285,00
-11805,32	371,00
-11777,57	344,00
-11749,88	444,00
-11722,25	248,00
-11694,69	240,00
-11667,19	371,00
-11639,75	375,00
-11612,38	242,00
-11585,07	277,00
-11557,83	362,00
-11530,65	406,00
-11503,53	247,00
-11476,47	302,00
-11449,48	343,00
-11422,54	370,00
-11395,67	324,00
-11368,86	393,00
-11342,11	288,00
-11315,43	277,00
-11288,80	326,00
-11262,23	244,00
-11235,73	344,00
-11209,28	462,00
-11182,90	366,00
-11156,57	284,00
-11130,31	359,00
-11104,10	352,00
-11077,96	313,00
-11051,87	346,00
-11025,84	307,00
-10999,87	415,00
-10973,96	335,00
-10948,11	244,00
-10922,31	380,00
-10896,58	312,00
-10870,90	409,00
-10845,28	339,00
-10819,71	296,00
-10794,20	320,00
-10768,75	352,00
-10743,36	377,00
-10718,02	277,00
-10692,74	336,00
-10667,52	355,00
-10642,35	302,00
-10617,24	366,00
-10592,18	330,00
-10567,18	360,00
-10542,23	332,00
-10517,34	289,00
-10492,51	432,00
-10467,72	371,00
-10443,00	315,00
-10418,32	399,00
-10393,70	467,00
-10369,14	381,00
-10344,63	352,00
-10320,17	433,00
-10295,77	327,00
-10271,42	408,00
-10247,12	368,00
-10222,88	458,00
-10198,68	367,00
-10174,54	357,00
-10150,46	464,00
-10126,42	471,00
-10102,44	390,00
-10078,51	432,00
-10054,63	506,00
-10030,80	382,00
-10007,03	489,00
-9983,30	442,00
-9959,63	520,00
-9936,01	538,00
-9912,44	542,00
-9888,92	544,00
-9865,44	433,00
-9842,02	444,00
-9818,65	628,00
-9795,33	515,00
-9772,06	579,00
-9748,84	465,00
-9725,67	523,00
-9702,55	563,00
-9679,47	636,00
-9656,45	742,00
-9633,47	617,00
-9610,55	628,00
-9587,67	836,00
-9564,84	893,00
-9542,06	863,00
-9519,32	1038,00
-9496,64	1044,00
-9474,00	1004,00
-9451,41	1017,00
-9428,87	993,00
-9406,37	1082,00
-9383,92	1097,00
-9361,52	1097,00
-9339,17	1215,00
-9316,86	1266,00
-9294,60	1440,00
-9272,38	1499,00
-9250,21	1584,00
-9228,09	1541,00
-9206,01	1661,00
-9183,98	1572,00
-9162,00	1412,00
-9140,06	1585,00
-9118,16	1424,00
-9096,31	1392,00
-9074,51	1499,00
-9052,75	1505,00
-9031,04	1642,00
-9009,37	1324,00
-8987,74	1416,00
-8966,16	1322,00
-8944,63	1193,00
-8923,14	1186,00
-8901,69	1247,00
-8880,29	1041,00
-8858,93	1245,00
-8837,61	1290,00
-8816,34	1340,00
-8795,11	1341,00
-8773,92	1108,00
-8752,78	1215,00
-8731,68	1069,00
-8710,62	1168,00
-8689,61	1091,00
-8668,63	1143,00
-8647,70	1213,00
-8626,82	1192,00
-8605,97	1219,00
-8585,17	1252,00
-8564,41	1173,00
-8543,69	1087,00
-8523,01	929,00
-8502,37	1080,00
-8481,78	1001,00
-8461,23	1111,00
-8440,71	1224,00
-8420,24	1240,00
-8399,81	1297,00
-8379,42	1164,00
-8359,08	1149,00
-8338,77	1011,00
-8318,50	896,00
-8298,27	890,00
-8278,09	1040,00
-8257,94	991,00
-8237,83	1091,00
-8217,76	1140,00
-8197,74	1114,00
-8177,75	1177,00
-8157,80	1012,00
-8137,89	939,00
-8118,02	958,00
-8098,19	973,00
-8078,40	913,00
-8058,65	1004,00
-8038,93	986,00
-8019,26	945,00
-7999,62	963,00
-7980,02	911,00
-7960,46	846,00
-7940,94	709,00
-7921,46	841,00
-7902,01	719,00
-7882,60	931,00
-7863,23	913,00
-7843,90	748,00
-7824,61	843,00
-7805,35	957,00
-7786,13	939,00
-7766,95	945,00
-7747,80	865,00
-7728,69	871,00
-7709,62	818,00
-7690,59	815,00
-7671,59	891,00
-7652,63	884,00
-7633,70	958,00
-7614,81	953,00
-7595,96	765,00
-7577,15	801,00
-7558,37	727,00
-7539,62	843,00
-7520,91	839,00
-7502,24	809,00
-7483,60	797,00
-7465,00	809,00
-7446,44	861,00
-7427,91	639,00
-7409,41	616,00
-7390,95	698,00
-7372,53	635,00
-7354,14	684,00
-7335,78	581,00
-7317,46	647,00
-7299,18	648,00
-7280,92	763,00
-7262,71	788,00
-7244,52	845,00
-7226,38	811,00
-7208,26	748,00
-7190,18	707,00
-7172,14	737,00
-7154,12	797,00
-7136,15	808,00
-7118,20	871,00
-7100,29	835,00
-7082,41	829,00
-7064,57	739,00
-7046,76	717,00
-7028,98	576,00
-7011,24	779,00
-6993,53	658,00
-6975,85	682,00
-6958,20	636,00
-6940,59	677,00
-6923,01	601,00
-6905,46	585,00
-6887,94	654,00
-6870,46	-1445,00
-6853,01	892,00
-6835,59	669,00
-6818,21	679,00
-6800,85	673,00
-6783,53	649,00
-6766,24	471,00
-6748,98	663,00
-6731,76	661,00
-6714,56	536,00
-6697,40	496,00
-6680,26	509,00
-6663,16	408,00
-6646,09	641,00
-6629,05	705,00
-6612,05	626,00
-6595,07	549,00
-6578,13	650,00
-6561,21	625,00
-6544,33	585,00
-6527,47	479,00
-6510,65	478,00
-6493,86	382,00
-6477,10	448,00
-6460,36	626,00
-6443,66	438,00
-6426,99	497,00
-6410,35	527,00
-6393,74	575,00
-6377,16	467,00
-6360,61	578,00
-6344,09	399,00
-6327,59	548,00
-6311,13	618,00
-6294,70	494,00
-6278,29	517,00
-6261,92	507,00
-6245,58	620,00
-6229,26	626,00
-6212,97	652,00
-6196,72	494,00
-6180,49	618,00
-6164,29	381,00
-6148,12	442,00
-6131,98	541,00
-6115,86	406,00
-6099,78	472,00
-6083,72	412,00
-6067,69	424,00
-6051,69	420,00
-6035,72	550,00
-6019,78	442,00
-6003,87	530,00
-5987,98	524,00
-5972,12	611,00
-5956,29	550,00
-5940,49	410,00
-5924,71	492,00
-5908,96	385,00
-5893,24	398,00
-5877,55	470,00
-5861,89	506,00
-5846,25	364,00
-5830,64	555,00
-5815,05	440,00
-5799,50	423,00
-5783,97	392,00
-5768,47	426,00
-5752,99	511,00
-5737,55	386,00
-5722,12	564,00
-5706,73	502,00
-5691,36	599,00
-5676,02	454,00
-5660,71	397,00
-5645,42	346,00
-5630,16	452,00
-5614,92	502,00
-5599,71	424,00
-5584,53	494,00
-5569,37	466,00
-5554,24	577,00
-5539,14	452,00
-5524,06	550,00
-5509,01	503,00
-5493,98	488,00
-5478,98	491,00
-5464,00	482,00
-5449,05	404,00
-5434,13	529,00
-5419,23	403,00
-5404,36	463,00
-5389,51	474,00
-5374,69	542,00
-5359,89	466,00
-5345,12	615,00
-5330,37	602,00
-5315,65	442,00
-5300,95	494,00
-5286,28	484,00
-5271,63	408,00
-5257,01	399,00
-5242,41	476,00
-5227,84	454,00
-5213,29	460,00
-5198,76	379,00
-5184,26	336,00
-5169,79	287,00
-5155,33	407,00
-5140,91	464,00
-5126,51	528,00
-5112,13	552,00
-5097,77	392,00
-5083,44	482,00
-5069,13	329,00
-5054,85	421,00
-5040,59	437,00
-5026,36	515,00
-5012,15	488,00
-4997,96	480,00
-4983,80	491,00
-4969,66	335,00
-4955,54	345,00
-4941,44	439,00
-4927,37	338,00
-4913,33	450,00
-4899,30	530,00
-4885,30	548,00
-4871,33	325,00
-4857,37	319,00
-4843,44	310,00
-4829,53	449,00
-4815,65	499,00
-4801,79	401,00
-4787,95	590,00
-4774,13	401,00
-4760,34	335,00
-4746,56	471,00
-4732,82	370,00
-4719,09	402,00
-4705,38	491,00
-4691,70	500,00
-4678,04	568,00
-4664,41	503,00
-4650,79	474,00
-4637,20	329,00
-4623,63	378,00
-4610,08	460,00
-4596,56	440,00
-4583,05	356,00
-4569,57	413,00
-4556,11	443,00
-4542,67	376,00
-4529,25	317,00
-4515,86	377,00
-4502,49	392,00
-4489,13	489,00
-4475,80	569,00
-4462,49	281,00
-4449,21	377,00
-4435,94	416,00
-4422,70	374,00
-4409,47	317,00
-4396,27	406,00
-4383,09	390,00
-4369,93	311,00
-4356,79	347,00
-4343,67	357,00
-4330,58	470,00
-4317,50	472,00
-4304,45	479,00
-4291,41	367,00
-4278,40	417,00
-4265,41	411,00
-4252,44	357,00
-4239,49	310,00
-4226,55	405,00
-4213,65	444,00
-4200,76	336,00
-4187,89	313,00
-4175,04	312,00
-4162,21	347,00
-4149,40	397,00
-4136,61	294,00
-4123,85	360,00
-4111,10	364,00
-4098,37	370,00
-4085,66	346,00
-4072,98	416,00
-4060,31	346,00
-4047,66	377,00
-4035,04	468,00
-4022,43	329,00
-4009,84	225,00
-3997,27	247,00
-3984,72	393,00
-3972,19	347,00
-3959,69	396,00
-3947,20	331,00
-3934,73	320,00
-3922,27	232,00
-3909,84	298,00
-3897,43	380,00
-3885,04	389,00
-3872,67	320,00
-3860,31	205,00
-3847,98	345,00
-3835,66	353,00
-3823,36	369,00
-3811,09	286,00
-3798,83	343,00
-3786,59	396,00
-3774,37	378,00
-3762,17	294,00
-3749,98	330,00
-3737,82	348,00
-3725,67	402,00
-3713,55	314,00
-3701,44	380,00
-3689,35	319,00
-3677,28	341,00
-3665,22	323,00
-3653,19	292,00
-3641,17	338,00
-3629,18	344,00
-3617,20	328,00
-3605,24	374,00
-3593,30	327,00
-3581,37	425,00
-3569,47	292,00
-3557,58	377,00
-3545,71	345,00
-3533,86	355,00
-3522,02	311,00
-3510,21	355,00
-3498,41	289,00
-3486,63	302,00
-3474,87	398,00
-3463,12	312,00
-3451,40	269,00
-3439,69	325,00
-3428,00	290,00
-3416,33	342,00
-3404,67	242,00
-3393,03	369,00
-3381,41	341,00
-3369,81	338,00
-3358,22	352,00
-3346,66	387,00
-3335,10	340,00
-3323,57	247,00
-3312,06	329,00
-3300,56	348,00
-3289,08	337,00
-3277,61	386,00
-3266,16	242,00
-3254,73	326,00
-3243,32	323,00
-3231,92	280,00
-3220,55	384,00
-3209,18	446,00
-3197,84	319,00
-3186,51	311,00
-3175,20	271,00
-3163,90	337,00
-3152,63	396,00
-3141,36	245,00
-3130,12	380,00
-3118,89	401,00
-3107,68	272,00
-3096,49	329,00
-3085,31	278,00
-3074,15	369,00
-3063,00	399,00
-3051,87	334,00
-3040,76	355,00
-3029,67	527,00
-3018,59	447,00
-3007,52	445,00
-2996,48	292,00
-2985,44	265,00
-2974,43	269,00
-2963,43	300,00
-2952,45	361,00
-2941,48	338,00
-2930,53	327,00
-2919,60	292,00
-2908,68	287,00
-2897,78	334,00
-2886,89	312,00
-2876,02	328,00
-2865,17	297,00
-2854,33	309,00
-2843,50	309,00
-2832,70	345,00
-2821,90	320,00
-2811,13	403,00
-2800,37	380,00
-2789,62	243,00
-2778,89	300,00
-2768,18	351,00
-2757,48	320,00
-2746,80	372,00
-2736,13	318,00
-2725,48	381,00
-2714,84	261,00
-2704,22	314,00
-2693,61	265,00
-2683,02	343,00
-2672,45	401,00
-2661,89	291,00
-2651,34	294,00
-2640,81	344,00
-2630,30	429,00
-2619,80	267,00
-2609,31	440,00
-2598,84	332,00
-2588,39	341,00
-2577,95	269,00
-2567,52	298,00
-2557,11	241,00
-2546,71	391,00
-2536,33	368,00
-2525,97	371,00
-2515,62	331,00
-2505,28	298,00
-2494,96	278,00
-2484,65	393,00
-2474,36	455,00
-2464,08	338,00
-2453,82	490,00
-2443,57	242,00
-2433,33	338,00
-2423,11	446,00
-2412,91	420,00
-2402,72	302,00
-2392,54	298,00
-2382,38	349,00
-2372,23	339,00
-2362,09	-2859,00
-2351,97	306,00
-2341,87	221,00
-2331,78	365,00
-2321,70	309,00
-2311,64	340,00
-2301,59	336,00
-2291,55	384,00
-2281,53	379,00
-2271,53	295,00
-2261,53	362,00
-2251,55	321,00
-2241,59	331,00
-2231,64	325,00
-2221,70	355,00
-2211,78	266,00
-2201,87	299,00
-2191,97	365,00
-2182,09	242,00
-2172,22	385,00
-2162,37	306,00
-2152,53	288,00
-2142,70	293,00
-2132,89	318,00
-2123,09	389,00
-2113,30	309,00
-2103,53	325,00
-2093,77	382,00
-2084,02	327,00
-2074,29	384,00
-2064,57	289,00
-2054,86	436,00
-2045,17	409,00
-2035,49	324,00
-2025,82	354,00
-2016,17	329,00
-2006,53	272,00
-1996,91	339,00
-1987,29	273,00
-1977,69	331,00
-1968,11	266,00
-1958,53	350,00
-1948,97	326,00
-1939,42	341,00
-1929,89	358,00
-1920,37	323,00
-1910,86	332,00
-1901,36	302,00
-1891,88	321,00
-1882,41	346,00
-1872,95	373,00
-1863,51	413,00
-1854,08	287,00
-1844,66	366,00
-1835,26	415,00
-1825,86	403,00
-1816,48	251,00
-1807,11	400,00
-1797,76	335,00
-1788,42	354,00
-1779,09	330,00
-1769,77	290,00
-1760,47	391,00
-1751,17	352,00
-1741,89	305,00
-1732,63	313,00
-1723,37	455,00
-1714,13	320,00
-1704,90	340,00
-1695,68	397,00
-1686,48	214,00
-1677,29	234,00
-1668,11	450,00
-1658,94	244,00
-1649,78	300,00
-1640,64	295,00
-1631,51	300,00
-1622,39	372,00
-1613,28	399,00
-1604,19	321,00
-1595,10	328,00
-1586,03	325,00
-1576,97	365,00
-1567,93	374,00
-1558,89	398,00
-1549,87	336,00
-1540,86	330,00
-1531,86	343,00
-1522,87	298,00
-1513,90	471,00
-1504,93	338,00
-1495,98	340,00
-1487,04	301,00
-1478,12	290,00
-1469,20	394,00
-1460,30	326,00
-1451,40	433,00
-1442,52	398,00
-1433,65	368,00
-1424,80	343,00
-1415,95	356,00
-1407,12	338,00
-1398,30	362,00
-1389,48	382,00
-1380,69	315,00
-1371,90	344,00
-1363,12	476,00
-1354,36	365,00
-1345,60	351,00
-1336,86	317,00
-1328,13	363,00
-1319,41	410,00
-1310,70	314,00
-1302,01	270,00
-1293,32	339,00
-1284,65	428,00
-1275,99	321,00
-1267,33	433,00
-1258,69	402,00
-1250,06	356,00
-1241,45	315,00
-1232,84	463,00
-1224,25	323,00
-1215,66	321,00
-1207,09	432,00
-1198,53	348,00
-1189,97	319,00
-1181,43	270,00
-1172,91	307,00
-1164,39	359,00
-1155,88	305,00
-1147,38	258,00
-1138,90	305,00
-1130,43	314,00
-1121,96	362,00
-1113,51	323,00
-1105,07	385,00
-1096,64	369,00
-1088,22	300,00
-1079,81	379,00
-1071,41	409,00
-1063,02	331,00
-1054,65	436,00
-1046,28	325,00
-1037,92	389,00
-1029,58	418,00
-1021,24	424,00
-1012,92	510,00
-1004,61	357,00
-996,30	438,00
-988,01	321,00
-979,73	349,00
-971,46	382,00
-963,20	357,00
-954,95	329,00
-946,71	408,00
-938,48	368,00
-930,26	453,00
-922,06	376,00
-913,86	278,00
-905,67	373,00
-897,49	363,00
-889,33	254,00
-881,17	400,00
-873,02	358,00
-864,89	296,00
-856,76	299,00
-848,65	373,00
-840,54	372,00
-832,45	394,00
-824,36	346,00
-816,29	345,00
-808,22	319,00
-800,17	415,00
-792,12	358,00
-784,09	439,00
-776,06	350,00
-768,05	340,00
-760,04	258,00
-752,05	328,00
-744,07	295,00
-736,09	424,00
-728,13	225,00
-720,17	320,00
-712,23	392,00
-704,29	242,00
-696,37	348,00
-688,45	424,00
-680,55	326,00
-672,65	412,00
-664,77	333,00
-656,89	366,00
-649,03	264,00
-641,17	331,00
-633,32	267,00
-625,49	375,00
-617,66	304,00
-609,84	354,00
-602,03	255,00
-594,23	320,00
-586,45	408,00
-578,67	324,00
-570,90	368,00
-563,14	353,00
-555,39	350,00
-547,65	360,00
-539,91	298,00
-532,19	376,00
-524,48	331,00
-516,78	311,00
-509,08	397,00
-501,40	414,00
-493,72	424,00
-486,06	318,00
-478,40	365,00
-470,76	260,00
-463,12	345,00
-455,49	324,00
-447,87	360,00
-440,26	332,00
-432,66	328,00
-425,07	355,00
-417,49	380,00
-409,92	341,00
-402,35	250,00
-394,80	303,00
-387,25	376,00
-379,72	402,00
-372,19	346,00
-364,67	432,00
-357,17	377,00
-349,67	371,00
-342,18	320,00
-334,69	371,00
-327,22	340,00
-319,76	401,00
-312,30	294,00
-304,86	320,00
-297,42	415,00
-290,00	323,00
-282,58	400,00
-275,17	382,00
-267,77	480,00
-260,37	383,00
-252,99	502,00
-245,62	471,00
-238,25	382,00
-230,90	365,00
-223,55	442,00
-216,21	381,00
-208,88	615,00
-201,56	532,00
-194,25	558,00
-186,94	536,00
-179,65	543,00
-172,36	654,00
-165,08	560,00
-157,81	684,00
-150,55	668,00
-143,30	670,00
-136,06	632,00
-128,82	774,00
-121,60	787,00
-114,38	803,00
-107,17	1032,00
-99,97	1078,00
-92,78	1145,00
-85,60	1201,00
-78,42	1373,00
-71,25	1549,00
-64,10	1738,00
-56,95	1948,00
-49,81	2284,00
-42,67	2820,00
-35,55	3408,00
-28,43	4453,00
-21,33	7061,00
-14,23	22356,00
-7,14	57498,00
-0,05	57284,00
7,02	57012,00
14,09	57319,00
21,14	20013,00
28,19	8447,00
35,23	5487,00
42,27	4374,00
49,29	3620,00
56,31	3020,00
63,32	2636,00
70,32	2249,00
77,31	1975,00
84,29	1684,00
91,27	1583,00
98,23	1534,00
105,19	1510,00
112,14	1725,00
119,09	2797,00
126,02	4664,00
132,95	5796,00
139,87	6213,00
146,78	6321,00
153,68	6375,00
160,58	6353,00
167,46	6237,00
174,34	6208,00
181,21	6239,00
188,08	6127,00
194,93	6203,00
201,78	6231,00
208,62	6401,00
215,45	6421,00
222,27	6402,00
229,09	6419,00
235,90	6317,00
242,70	6391,00
249,49	6369,00
256,27	6345,00
263,05	6240,00
269,82	6403,00
276,58	6237,00
283,33	6166,00
290,08	6134,00
296,82	6213,00
303,55	5954,00
310,27	5961,00
316,98	6066,00
323,69	6017,00
330,39	5993,00
337,08	6018,00
343,76	6107,00
350,44	6087,00
357,11	6050,00
363,77	5989,00
370,42	6028,00
377,07	5851,00
383,71	6069,00
390,34	6031,00
396,96	6061,00
403,58	6046,00
410,19	6080,00
416,79	6025,00
423,38	6113,00
429,97	5987,00
436,55	5801,00
443,12	5883,00
449,68	5832,00
456,24	5723,00
462,79	5800,00
469,33	5726,00
475,86	5801,00
482,39	5698,00
488,91	5727,00
495,42	5604,00
501,93	5671,00
508,42	5649,00
514,91	5558,00
521,40	5542,00
527,87	5596,00
534,34	5467,00
540,80	5484,00
547,25	5545,00
553,70	5507,00
560,14	5610,00
566,57	5512,00
573,00	5468,00
579,41	5580,00
585,83	5577,00
592,23	5427,00
598,62	5542,00
605,01	5464,00
611,40	5446,00
617,77	5476,00
624,14	5380,00
630,50	5371,00
636,85	5361,00
643,20	5350,00
649,54	5334,00
655,87	5324,00
662,20	5339,00
668,52	5329,00
674,83	5285,00
681,13	5170,00
687,43	5326,00
693,72	5076,00
700,00	5142,00
706,28	5089,00
712,55	5155,00
718,81	5167,00
725,07	5108,00
731,32	5031,00
737,56	5176,00
743,79	5075,00
750,02	5095,00
756,24	5061,00
762,46	5022,00
768,67	5030,00
774,87	5099,00
781,06	4951,00
787,25	5000,00
793,43	5103,00
799,60	5002,00
805,77	5113,00
811,93	5023,00
818,08	5046,00
824,23	4875,00
830,37	5019,00
836,50	4934,00
842,63	4992,00
848,75	4900,00
854,87	4828,00
860,97	5025,00
867,07	4883,00
873,17	4899,00
879,25	4832,00
885,33	4873,00
891,41	4909,00
897,47	4773,00
903,53	4796,00
909,59	4679,00
915,63	4782,00
921,67	4814,00
927,71	4711,00
933,74	4808,00
939,76	4646,00
945,77	4624,00
951,78	4803,00
957,78	4612,00
963,78	4757,00
969,77	4664,00
975,75	4654,00
981,72	4638,00
987,69	5113,00
993,66	4798,00
999,61	4682,00
1005,56	4782,00
1011,51	4664,00
1017,44	4676,00
1023,37	4642,00
1029,30	4611,00
1035,22	4641,00
1041,13	4734,00
1047,03	4667,00
1052,93	4686,00
1058,83	4824,00
1064,71	4929,00
1070,59	4770,00
1076,47	4657,00
1082,33	4668,00
1088,20	4563,00
1094,05	4491,00
1099,90	4454,00
1105,74	4470,00
1111,58	4483,00
1117,41	4466,00
1123,23	4472,00
1129,05	4762,00
1134,86	4678,00
1140,67	4510,00
1146,47	4541,00
1152,26	4627,00
1158,05	4460,00
1163,83	4470,00
1169,60	4393,00
1175,37	4527,00
1181,13	4347,00
1186,89	4466,00
1192,64	4498,00
1198,38	4551,00
1204,12	4466,00
1209,85	4458,00
1215,58	4374,00
1221,30	4412,00
1227,02	4461,00
1232,72	4431,00
1238,43	4446,00
1244,12	4302,00
1249,81	4436,00
1255,50	4487,00
1261,17	4452,00
1266,85	4361,00
1272,51	4475,00
1278,17	4528,00
1283,83	4460,00
1289,47	4807,00
1295,12	4841,00
1300,75	4795,00
1306,38	4635,00
1312,01	4529,00
1317,63	4472,00
1323,24	4343,00
1328,85	4370,00
1334,45	4416,00
1340,04	4459,00
1345,63	4522,00
1351,22	4597,00
1356,80	4476,00
1362,37	4580,00
1367,93	4421,00
1373,49	4548,00
1379,05	4576,00
1384,60	4464,00
1390,14	4515,00
1395,68	4475,00
1401,21	4407,00
1406,74	4499,00
1412,26	4556,00
1417,77	4741,00
1423,28	4592,00
1428,78	4642,00
1434,28	4807,00
1439,77	4883,00
1445,26	4859,00
1450,74	4738,00
1456,22	4744,00
1461,68	4750,00
1467,15	4623,00
1472,61	4433,00
1478,06	4542,00
1483,51	4319,00
1488,95	4264,00
1494,38	4235,00
1499,81	4223,00
1505,24	4247,00
1510,65	4168,00
1516,07	4166,00
1521,48	4192,00
1526,88	4055,00
1532,27	4121,00
1537,67	3990,00
1543,05	4071,00
1548,43	4126,00
1553,81	4050,00
1559,18	3797,00
1564,54	4053,00
1569,90	3953,00
1575,25	3934,00
1580,60	3845,00
1585,94	3958,00
1591,28	3913,00
1596,61	3963,00
1601,93	3941,00
1607,25	4047,00
1612,57	3810,00
1617,88	3887,00
1623,18	3813,00
1628,48	3731,00
1633,77	3760,00
1639,06	3758,00
1644,34	3808,00
1649,62	3694,00
1654,89	3749,00
1660,16	3745,00
1665,42	3731,00
1670,67	3784,00
1675,92	3543,00
1681,17	3582,00
1686,41	3675,00
1691,64	3599,00
1696,87	3681,00
1702,10	3595,00
1707,32	3598,00
1712,53	3507,00
1717,74	3415,00
1722,94	3621,00
1728,14	3471,00
1733,33	3455,00
1738,52	3394,00
1743,70	3372,00
1748,88	3435,00
1754,05	3406,00
1759,22	3262,00
1764,38	3402,00
1769,53	3415,00
1774,69	3410,00
1779,83	3247,00
1784,97	3262,00
1790,11	3239,00
1795,24	3201,00
1800,36	3190,00
1805,48	3277,00
1810,60	3251,00
1815,71	3201,00
1820,82	3146,00
1825,92	3188,00
1831,01	3221,00
1836,10	3107,00
1841,19	3217,00
1846,26	3129,00
1851,34	3179,00
1856,41	3123,00
1861,47	3028,00
1866,53	3252,00
1871,59	3130,00
1876,64	3084,00
1881,68	3068,00
1886,72	3004,00
1891,76	3045,00
1896,79	2945,00
1901,81	2889,00
1906,83	2907,00
1911,85	3001,00
1916,86	2928,00
1921,86	2849,00
1926,86	2779,00
1931,86	2893,00
1936,85	2843,00
1941,83	2717,00
1946,81	2749,00
1951,79	2642,00
1956,76	2839,00
1961,72	2645,00
1966,68	2792,00
1971,64	2679,00
1976,59	2801,00
1981,54	2737,00
1986,48	2699,00
1991,42	2568,00
1996,35	2739,00
2001,27	2689,00
2006,20	2464,00
2011,11	2640,00
2016,03	2641,00
2020,93	2459,00
2025,84	2727,00
2030,73	2570,00
2035,63	2467,00
2040,52	2474,00
2045,40	2543,00
2050,28	2541,00
2055,15	2594,00
2060,02	2353,00
2064,89	2519,00
2069,75	2422,00
2074,60	2524,00
2079,46	2381,00
2084,30	2433,00
2089,14	2257,00
2093,98	2434,00
2098,81	2498,00
2103,64	2394,00
2108,46	2406,00
2113,28	2401,00
2118,09	2386,00
2122,90	2478,00
2127,70	2351,00
2132,50	2372,00
2137,30	2324,00
2142,09	2299,00
2146,87	2267,00
2151,66	2313,00
2156,43	2198,00
2161,20	2304,00
2165,97	2177,00
2170,73	2271,00
2175,49	2311,00
2180,24	2270,00
2184,99	2291,00
2189,74	2284,00
2194,48	2260,00
2199,21	2126,00
2203,94	2273,00
2208,67	2059,00
2213,39	2015,00
2218,11	2133,00
2222,82	2119,00
2227,53	2210,00
2232,23	2098,00
2236,93	2044,00
2241,63	2100,00
2246,32	2108,00
2251,00	2100,00
2255,68	2073,00
2260,36	2067,00
2265,03	2059,00
2269,70	2128,00
2274,36	1998,00
2279,02	2090,00
2283,68	2067,00
2288,33	2014,00
2292,97	2008,00
2297,61	1927,00
2302,25	2013,00
2306,88	1966,00
2311,51	1986,00
2316,14	1966,00
2320,75	1960,00
2325,37	1881,00
2329,98	1886,00
2334,59	2000,00
2339,19	1897,00
2343,79	1737,00
2348,38	1882,00
2352,97	1815,00
2357,55	1822,00
2362,13	1852,00
2366,71	1816,00
2371,28	1871,00
2375,85	1839,00
2380,41	1826,00
2384,97	1780,00
2389,52	1859,00
2394,07	1783,00
2398,62	1718,00
2403,16	1791,00
2407,70	1619,00
2412,23	1624,00
2416,76	1778,00
2421,29	1747,00
2425,81	1832,00
2430,32	1712,00
2434,84	1635,00
2439,34	1593,00
2443,85	1640,00
2448,35	1681,00
2452,84	1491,00
2457,33	1583,00
2461,82	1599,00
2466,30	1557,00
2470,78	1622,00
2475,25	1627,00
2479,72	1481,00
2484,19	1562,00
2488,65	1634,00
2493,11	1504,00
2497,56	1609,00
2502,01	1486,00
2506,46	1576,00
2510,90	1445,00
2515,34	1422,00
2519,77	1575,00
2524,20	1504,00
2528,62	1547,00
2533,04	1525,00
2537,46	1405,00
2541,87	1465,00
2546,28	1446,00
2550,68	1506,00
2555,08	1381,00
2559,48	1492,00
2563,87	1384,00
2568,26	1393,00
2572,64	1419,00
2577,02	1425,00
2581,40	1366,00
2585,77	1342,00
2590,14	1321,00
2594,50	1219,00
2598,86	1296,00
2603,22	1297,00
2607,57	1283,00
2611,92	1335,00
2616,26	1384,00
2620,60	1343,00
2624,94	1314,00
2629,27	1268,00
2633,60	1153,00
2637,92	1409,00
2642,24	1286,00
2646,56	1225,00
2650,87	1218,00
2655,18	1275,00
2659,48	1210,00
2663,78	1182,00
2668,08	1240,00
2672,37	1206,00
2676,66	1194,00
2680,95	1064,00
2685,23	1228,00
2689,50	1243,00
2693,78	1216,00
2698,05	1129,00
2702,31	1189,00
2706,57	1287,00
2710,83	1253,00
2715,08	1391,00
2719,33	1201,00
2723,58	1281,00
2727,82	1229,00
2732,06	1146,00
2736,29	1240,00
2740,53	1193,00
2744,75	1099,00
2748,97	1120,00
2753,19	1217,00
2757,41	1087,00
2761,62	1207,00
2765,83	1145,00
2770,03	1141,00
2774,23	1194,00
2778,43	1100,00
2782,62	1037,00
2786,81	1223,00
2791,00	1154,00
2795,18	1088,00
2799,35	1159,00
2803,53	1076,00
2807,70	1144,00
2811,86	1051,00
2816,03	1148,00
2820,19	1124,00
2824,34	1028,00
2828,49	1178,00
2832,64	1144,00
2836,78	1328,00
2840,92	1307,00
2845,06	1460,00
2849,19	1550,00
2853,32	1547,00
2857,45	1455,00
2861,57	1594,00
2865,69	1502,00
2869,80	1402,00
2873,91	1530,00
2878,02	1576,00
2882,12	1602,00
2886,22	1629,00
2890,32	1480,00
2894,41	1445,00
2898,50	1381,00
2902,58	1445,00
2906,67	1374,00
2910,74	1305,00
2914,82	1198,00
2918,89	1346,00
2922,96	1127,00
2927,02	1108,00
2931,08	1111,00
2935,13	1102,00
2939,19	1092,00
2943,24	990,00
2947,28	1101,00
2951,32	972,00
2955,36	871,00
2959,40	1035,00
2963,43	891,00
2967,46	878,00
2971,48	854,00
2975,50	767,00
2979,52	924,00
2983,53	870,00
2987,54	858,00
2991,55	894,00
2995,55	874,00
2999,55	839,00
3003,54	823,00
3007,54	838,00
3011,53	833,00
3015,51	802,00
3019,49	787,00
3023,47	769,00
3027,45	800,00
3031,42	738,00
3035,39	755,00
3039,35	703,00
3043,31	774,00
3047,27	738,00
3051,22	741,00
3055,17	733,00
3059,12	689,00
3063,06	746,00
3067,00	633,00
3070,94	640,00
3074,87	718,00
3078,80	716,00
3082,73	751,00
3086,65	677,00
3090,57	686,00
3094,49	696,00
3098,40	655,00
3102,31	585,00
3106,22	703,00
3110,12	636,00
3114,02	552,00
3117,92	659,00
3121,81	587,00
3125,70	639,00
3129,58	620,00
3133,47	536,00
3137,34	617,00
3141,22	704,00
3145,09	569,00
3148,96	698,00
3152,83	659,00
3156,69	616,00
3160,55	589,00
3164,40	668,00
3168,26	654,00
3172,10	616,00
3175,95	706,00
3179,79	550,00
3183,63	662,00
3187,47	525,00
3191,30	574,00
3195,13	547,00
3198,95	512,00
3202,78	637,00
3206,60	591,00
3210,41	561,00
3214,23	570,00
3218,03	567,00
3221,84	568,00
3225,64	559,00
3229,44	485,00
3233,24	593,00
3237,03	493,00
3240,82	552,00
3244,61	556,00
3248,39	488,00
3252,17	519,00
3255,95	538,00
3259,72	574,00
3263,49	560,00
3267,26	550,00
3271,03	606,00
3274,79	514,00
3278,54	519,00
3282,30	451,00
3286,05	548,00
3289,80	584,00
3293,54	433,00
3297,29	530,00
3301,02	475,00
3304,76	554,00
3308,49	555,00
3312,22	460,00
3315,95	460,00
3319,67	434,00
3323,39	557,00
3327,10	565,00
3330,82	447,00
3334,53	526,00
3338,24	449,00
3341,94	450,00
3345,64	516,00
3349,34	508,00
3353,03	537,00
3356,72	496,00
3360,41	455,00
3364,10	433,00
3367,78	496,00
3371,46	392,00
3375,13	438,00
3378,81	431,00
3382,48	364,00
3386,14	490,00
3389,81	462,00
3393,47	436,00
3397,12	525,00
3400,78	433,00
3404,43	446,00
3408,08	528,00
3411,72	367,00
3415,36	412,00
3419,00	467,00
3422,64	439,00
3426,27	472,00
3429,90	480,00
3433,53	337,00
3437,15	432,00
3440,77	392,00
3444,39	416,00
3448,00	463,00
3451,62	437,00
3455,22	429,00
3458,83	367,00
3462,43	461,00
3466,03	488,00
3469,63	386,00
3473,22	428,00
3476,81	321,00
3480,40	482,00
3483,99	427,00
3487,57	321,00
3491,15	426,00
3494,72	606,00
3498,29	425,00
3501,86	371,00
3505,43	321,00
3508,99	337,00
3512,56	334,00
3516,11	427,00
3519,67	310,00
3523,22	410,00
3526,77	361,00
3530,32	469,00
3533,86	485,00
3537,40	460,00
3540,94	372,00
3544,47	337,00
3548,00	410,00
3551,53	431,00
3555,06	400,00
3558,58	394,00
3562,10	434,00
3565,62	276,00
3569,13	315,00
3572,64	514,00
3576,15	365,00
3579,66	361,00
3583,16	317,00
3586,66	406,00
3590,16	368,00
3593,65	383,00
3597,14	331,00
3600,63	357,00
3604,11	331,00
3607,60	305,00
3611,08	360,00
3614,55	341,00
3618,03	436,00
3621,50	295,00
3624,97	304,00
3628,43	367,00
3631,90	324,00
3635,36	253,00
3638,81	351,00
3642,27	301,00
3645,72	297,00
3649,17	331,00
3652,61	286,00
3656,06	256,00
3659,50	336,00
3662,93	332,00
3666,37	374,00
3669,80	471,00
3673,23	417,00
3676,65	295,00
3680,08	303,00
3683,50	366,00
3686,92	303,00
3690,33	305,00
3693,74	332,00
3697,15	301,00
3700,56	298,00
3703,96	388,00
3707,36	218,00
3710,76	296,00
3714,16	347,00
3717,55	267,00
3720,94	279,00
3724,33	324,00
3727,71	269,00
3731,10	325,00
3734,48	348,00
3737,85	290,00
3741,23	347,00
3744,60	248,00
3747,97	259,00
3751,33	349,00
3754,69	247,00
3758,05	306,00
3761,41	322,00
3764,77	274,00
3768,12	311,00
3771,47	256,00
3774,82	230,00
3778,16	-5,00
3781,50	3,00
3784,84	2,00
3788,18	6,00
>>>>>End Processed Spectral Data<<<<<
