SpectraSuite Data File
++++++++++++++++++++++++++++++++++++
Date: Mon Jan 05 16:28:49 ICT 2026
User: Administrator
Dark Spectrum Present: Yes
Reference Spectrum Present: No
Number of Sampled Component Spectra: 1
Spectrometers: MAYP113682
Integration Time (usec): 3000000 (MAYP113682)
Spectra Averaged: 1 (MAYP113682)
Boxcar Smoothing: 0 (MAYP113682)
Correct for Electrical Dark: No (MAYP113682)
Strobe/Lamp Enabled: No (MAYP113682)
Correct for Detector Non-linearity: No (MAYP113682)
Correct for Stray Light: No (MAYP113682)
Number of Pixels in Processed Spectrum: 2068
>>>>>Begin Processed Spectral Data<<<<<
-37534,58	22,00
-37414,56	5,00
-37295,11	10,00
-37176,24	2,00
-37057,95	373,00
-36940,22	445,00
-36823,05	531,00
-36706,45	598,00
-36590,40	529,00
-36474,90	509,00
-36359,95	603,00
-36245,55	551,00
-36131,68	520,00
-36018,35	555,00
-35905,55	504,00
-35793,29	659,00
-35681,54	539,00
-35570,32	598,00
-35459,62	571,00
-35349,43	614,00
-35239,75	627,00
-35130,58	557,00
-35021,91	600,00
-34913,74	563,00
-34806,07	617,00
-34698,89	630,00
-34592,20	608,00
-34486,00	626,00
-34380,28	701,00
-34275,04	520,00
-34170,27	511,00
-34065,98	700,00
-33962,16	586,00
-33858,81	667,00
-33755,92	601,00
-33653,49	654,00
-33551,52	627,00
-33450,01	599,00
-33348,94	610,00
-33248,33	563,00
-33148,16	613,00
-33048,43	658,00
-32949,14	755,00
-32850,29	681,00
-32751,87	552,00
-32653,89	644,00
-32556,33	677,00
-32459,20	588,00
-32362,49	657,00
-32266,19	594,00
-32170,32	579,00
-32074,86	629,00
-31979,82	748,00
-31885,18	625,00
-31790,95	641,00
-31697,12	722,00
-31603,69	719,00
-31510,67	686,00
-31418,04	588,00
-31325,80	644,00
-31233,95	659,00
-31142,49	578,00
-31051,42	566,00
-30960,73	718,00
-30870,43	763,00
-30780,50	693,00
-30690,95	634,00
-30601,77	774,00
-30512,97	609,00
-30424,53	629,00
-30336,46	595,00
-30248,76	593,00
-30161,42	733,00
-30074,44	568,00
-29987,81	589,00
-29901,55	744,00
-29815,63	594,00
-29730,07	696,00
-29644,86	760,00
-29560,00	694,00
-29475,48	728,00
-29391,30	687,00
-29307,47	631,00
-29223,97	605,00
-29140,81	673,00
-29057,99	639,00
-28975,50	623,00
-28893,34	805,00
-28811,51	605,00
-28730,00	754,00
-28648,82	592,00
-28567,97	640,00
-28487,43	628,00
-28407,21	582,00
-28327,32	599,00
-28247,73	824,00
-28168,46	613,00
-28089,50	648,00
-28010,85	563,00
-27932,51	558,00
-27854,48	620,00
-27776,75	604,00
-27699,32	676,00
-27622,19	627,00
-27545,37	588,00
-27468,84	711,00
-27392,60	668,00
-27316,66	680,00
-27241,01	679,00
-27165,66	656,00
-27090,59	533,00
-27015,81	695,00
-26941,31	755,00
-26867,10	668,00
-26793,17	765,00
-26719,52	669,00
-26646,15	622,00
-26573,06	632,00
-26500,24	628,00
-26427,70	666,00
-26355,43	550,00
-26283,43	594,00
-26211,71	625,00
-26140,25	630,00
-26069,06	691,00
-25998,13	573,00
-25927,46	508,00
-25857,06	585,00
-25786,92	664,00
-25717,04	562,00
-25647,42	691,00
-25578,05	568,00
-25508,94	555,00
-25440,09	645,00
-25371,48	669,00
-25303,13	692,00
-25235,02	639,00
-25167,17	614,00
-25099,56	583,00
-25032,19	593,00
-24965,07	624,00
-24898,20	549,00
-24831,56	532,00
-24765,17	719,00
-24699,01	572,00
-24633,10	677,00
-24567,41	672,00
-24501,97	518,00
-24436,75	618,00
-24371,77	561,00
-24307,03	588,00
-24242,51	645,00
-24178,22	630,00
-24114,16	623,00
-24050,32	632,00
-23986,71	663,00
-23923,32	557,00
-23860,16	644,00
-23797,22	634,00
-23734,50	638,00
-23672,00	630,00
-23609,71	592,00
-23547,65	643,00
-23485,80	675,00
-23424,16	495,00
-23362,74	788,00
-23301,53	602,00
-23240,54	504,00
-23179,75	575,00
-23119,17	533,00
-23058,80	671,00
-22998,64	741,00
-22938,68	586,00
-22878,93	627,00
-22819,39	552,00
-22760,04	576,00
-22700,90	623,00
-22641,96	644,00
-22583,22	611,00
-22524,68	608,00
-22466,33	592,00
-22408,19	594,00
-22350,23	532,00
-22292,48	583,00
-22234,92	602,00
-22177,55	728,00
-22120,37	613,00
-22063,38	563,00
-22006,58	495,00
-21949,98	613,00
-21893,56	492,00
-21837,33	629,00
-21781,28	613,00
-21725,42	602,00
-21669,74	736,00
-21614,25	671,00
-21558,94	681,00
-21503,81	658,00
-21448,86	638,00
-21394,10	676,00
-21339,51	618,00
-21285,10	529,00
-21230,86	535,00
-21176,81	575,00
-21122,93	521,00
-21069,22	467,00
-21015,69	634,00
-20962,33	663,00
-20909,14	590,00
-20856,13	595,00
-20803,28	635,00
-20750,61	634,00
-20698,10	507,00
-20645,76	566,00
-20593,59	598,00
-20541,59	681,00
-20489,75	656,00
-20438,07	518,00
-20386,56	693,00
-20335,22	558,00
-20284,03	566,00
-20233,01	569,00
-20182,15	543,00
-20131,45	576,00
-20080,91	549,00
-20030,52	692,00
-19980,30	529,00
-19930,23	555,00
-19880,32	662,00
-19830,56	536,00
-19780,96	645,00
-19731,52	569,00
-19682,23	596,00
-19633,09	576,00
-19584,10	555,00
-19535,26	606,00
-19486,58	628,00
-19438,04	594,00
-19389,66	607,00
-19341,42	545,00
-19293,33	573,00
-19245,39	599,00
-19197,60	702,00
-19149,95	642,00
-19102,45	596,00
-19055,09	598,00
-19007,87	639,00
-18960,80	658,00
-18913,87	626,00
-18867,09	651,00
-18820,44	714,00
-18773,94	645,00
-18727,57	689,00
-18681,35	508,00
-18635,26	638,00
-18589,31	533,00
-18543,50	612,00
-18497,83	691,00
-18452,29	525,00
-18406,89	591,00
-18361,63	726,00
-18316,50	647,00
-18271,50	594,00
-18226,63	650,00
-18181,90	686,00
-18137,30	715,00
-18092,84	555,00
-18048,50	641,00
-18004,29	552,00
-17960,22	567,00
-17916,27	536,00
-17872,45	658,00
-17828,76	724,00
-17785,20	700,00
-17741,77	640,00
-17698,46	705,00
-17655,28	530,00
-17612,22	626,00
-17569,29	650,00
-17526,48	665,00
-17483,79	663,00
-17441,23	577,00
-17398,79	604,00
-17356,48	510,00
-17314,28	693,00
-17272,21	586,00
-17230,26	631,00
-17188,42	608,00
-17146,71	620,00
-17105,12	621,00
-17063,64	626,00
-17022,28	601,00
-16981,04	470,00
-16939,92	619,00
-16898,91	750,00
-16858,02	544,00
-16817,25	636,00
-16776,59	602,00
-16736,04	550,00
-16695,61	611,00
-16655,29	647,00
-16615,09	568,00
-16574,99	555,00
-16535,01	633,00
-16495,15	652,00
-16455,39	585,00
-16415,74	676,00
-16376,21	629,00
-16336,78	596,00
-16297,46	625,00
-16258,26	516,00
-16219,16	577,00
-16180,17	686,00
-16141,28	659,00
-16102,51	687,00
-16063,84	491,00
-16025,27	593,00
-15986,82	513,00
-15948,46	559,00
-15910,22	629,00
-15872,07	621,00
-15834,04	649,00
-15796,10	628,00
-15758,27	817,00
-15720,54	639,00
-15682,91	593,00
-15645,39	714,00
-15607,97	619,00
-15570,64	560,00
-15533,42	671,00
-15496,30	544,00
-15459,28	676,00
-15422,36	622,00
-15385,54	577,00
-15348,82	600,00
-15312,19	680,00
-15275,66	539,00
-15239,23	654,00
-15202,90	580,00
-15166,67	559,00
-15130,53	667,00
-15094,48	723,00
-15058,54	609,00
-15022,68	554,00
-14986,93	504,00
-14951,26	673,00
-14915,69	632,00
-14880,22	629,00
-14844,84	605,00
-14809,55	622,00
-14774,35	595,00
-14739,25	593,00
-14704,24	694,00
-14669,32	596,00
-14634,49	597,00
-14599,75	583,00
-14565,10	641,00
-14530,55	681,00
-14496,08	649,00
-14461,70	596,00
-14427,41	572,00
-14393,21	528,00
-14359,10	523,00
-14325,07	528,00
-14291,14	549,00
-14257,29	632,00
-14223,52	680,00
-14189,85	733,00
-14156,26	637,00
-14122,76	518,00
-14089,34	545,00
-14056,01	620,00
-14022,76	546,00
-13989,60	622,00
-13956,52	698,00
-13923,53	629,00
-13890,62	601,00
-13857,79	616,00
-13825,05	568,00
-13792,39	588,00
-13759,81	680,00
-13727,31	626,00
-13694,90	606,00
-13662,57	692,00
-13630,31	604,00
-13598,14	659,00
-13566,05	519,00
-13534,05	619,00
-13502,12	552,00
-13470,27	620,00
-13438,50	707,00
-13406,80	559,00
-13375,19	587,00
-13343,66	712,00
-13312,20	577,00
-13280,83	578,00
-13249,53	663,00
-13218,30	503,00
-13187,16	600,00
-13156,09	709,00
-13125,10	710,00
-13094,18	608,00
-13063,34	690,00
-13032,58	457,00
-13001,89	698,00
-12971,28	657,00
-12940,74	627,00
-12910,27	732,00
-12879,88	559,00
-12849,57	757,00
-12819,33	611,00
-12789,16	701,00
-12759,06	597,00
-12729,04	551,00
-12699,09	1817,00
-12669,21	550,00
-12639,41	667,00
-12609,68	574,00
-12580,02	572,00
-12550,43	677,00
-12520,91	511,00
-12491,46	614,00
-12462,08	516,00
-12432,77	633,00
-12403,54	538,00
-12374,37	521,00
-12345,27	704,00
-12316,24	662,00
-12287,29	588,00
-12258,40	631,00
-12229,57	669,00
-12200,82	576,00
-12172,14	693,00
-12143,52	501,00
-12114,97	603,00
-12086,49	623,00
-12058,07	725,00
-12029,73	584,00
-12001,44	640,00
-11973,23	668,00
-11945,08	583,00
-11917,00	567,00
-11888,98	556,00
-11861,03	779,00
-11833,15	603,00
-11805,32	630,00
-11777,57	583,00
-11749,88	635,00
-11722,25	603,00
-11694,69	650,00
-11667,19	649,00
-11639,75	623,00
-11612,38	606,00
-11585,07	635,00
-11557,83	623,00
-11530,65	707,00
-11503,53	536,00
-11476,47	640,00
-11449,48	565,00
-11422,54	630,00
-11395,67	629,00
-11368,86	661,00
-11342,11	583,00
-11315,43	549,00
-11288,80	551,00
-11262,23	697,00
-11235,73	627,00
-11209,28	786,00
-11182,90	585,00
-11156,57	607,00
-11130,31	657,00
-11104,10	626,00
-11077,96	573,00
-11051,87	530,00
-11025,84	508,00
-10999,87	642,00
-10973,96	543,00
-10948,11	528,00
-10922,31	715,00
-10896,58	650,00
-10870,90	754,00
-10845,28	660,00
-10819,71	486,00
-10794,20	663,00
-10768,75	586,00
-10743,36	666,00
-10718,02	533,00
-10692,74	543,00
-10667,52	663,00
-10642,35	639,00
-10617,24	628,00
-10592,18	699,00
-10567,18	527,00
-10542,23	609,00
-10517,34	539,00
-10492,51	627,00
-10467,72	544,00
-10443,00	577,00
-10418,32	623,00
-10393,70	701,00
-10369,14	565,00
-10344,63	528,00
-10320,17	614,00
-10295,77	615,00
-10271,42	582,00
-10247,12	657,00
-10222,88	624,00
-10198,68	577,00
-10174,54	626,00
-10150,46	745,00
-10126,42	612,00
-10102,44	574,00
-10078,51	461,00
-10054,63	673,00
-10030,80	569,00
-10007,03	581,00
-9983,30	580,00
-9959,63	607,00
-9936,01	653,00
-9912,44	539,00
-9888,92	533,00
-9865,44	529,00
-9842,02	527,00
-9818,65	567,00
-9795,33	451,00
-9772,06	543,00
-9748,84	400,00
-9725,67	381,00
-9702,55	490,00
-9679,47	471,00
-9656,45	566,00
-9633,47	327,00
-9610,55	374,00
-9587,67	434,00
-9564,84	572,00
-9542,06	443,00
-9519,32	486,00
-9496,64	391,00
-9474,00	214,00
-9451,41	232,00
-9428,87	270,00
-9406,37	331,00
-9383,92	189,00
-9361,52	90,00
-9339,17	334,00
-9316,86	228,00
-9294,60	206,00
-9272,38	167,00
-9250,21	163,00
-9228,09	215,00
-9206,01	177,00
-9183,98	99,00
-9162,00	-46,00
-9140,06	119,00
-9118,16	131,00
-9096,31	17,00
-9074,51	20,00
-9052,75	165,00
-9031,04	250,00
-9009,37	81,00
-8987,74	231,00
-8966,16	214,00
-8944,63	225,00
-8923,14	244,00
-8901,69	188,00
-8880,29	154,00
-8858,93	197,00
-8837,61	284,00
-8816,34	233,00
-8795,11	182,00
-8773,92	212,00
-8752,78	274,00
-8731,68	198,00
-8710,62	392,00
-8689,61	177,00
-8668,63	171,00
-8647,70	453,00
-8626,82	210,00
-8605,97	359,00
-8585,17	331,00
-8564,41	343,00
-8543,69	297,00
-8523,01	141,00
-8502,37	286,00
-8481,78	233,00
-8461,23	176,00
-8440,71	257,00
-8420,24	269,00
-8399,81	327,00
-8379,42	154,00
-8359,08	304,00
-8338,77	144,00
-8318,50	143,00
-8298,27	159,00
-8278,09	239,00
-8257,94	153,00
-8237,83	263,00
-8217,76	293,00
-8197,74	238,00
-8177,75	351,00
-8157,80	184,00
-8137,89	221,00
-8118,02	268,00
-8098,19	301,00
-8078,40	243,00
-8058,65	234,00
-8038,93	313,00
-8019,26	294,00
-7999,62	390,00
-7980,02	282,00
-7960,46	268,00
-7940,94	329,00
-7921,46	212,00
-7902,01	369,00
-7882,60	465,00
-7863,23	331,00
-7843,90	252,00
-7824,61	350,00
-7805,35	396,00
-7786,13	368,00
-7766,95	318,00
-7747,80	362,00
-7728,69	353,00
-7709,62	411,00
-7690,59	443,00
-7671,59	370,00
-7652,63	329,00
-7633,70	344,00
-7614,81	359,00
-7595,96	325,00
-7577,15	357,00
-7558,37	237,00
-7539,62	345,00
-7520,91	289,00
-7502,24	301,00
-7483,60	291,00
-7465,00	336,00
-7446,44	437,00
-7427,91	253,00
-7409,41	275,00
-7390,95	369,00
-7372,53	390,00
-7354,14	359,00
-7335,78	335,00
-7317,46	314,00
-7299,18	292,00
-7280,92	313,00
-7262,71	340,00
-7244,52	289,00
-7226,38	215,00
-7208,26	205,00
-7190,18	240,00
-7172,14	288,00
-7154,12	284,00
-7136,15	292,00
-7118,20	384,00
-7100,29	360,00
-7082,41	340,00
-7064,57	243,00
-7046,76	351,00
-7028,98	166,00
-7011,24	336,00
-6993,53	218,00
-6975,85	387,00
-6958,20	367,00
-6940,59	444,00
-6923,01	313,00
-6905,46	474,00
-6887,94	296,00
-6870,46	452,00
-6853,01	321,00
-6835,59	256,00
-6818,21	229,00
-6800,85	382,00
-6783,53	224,00
-6766,24	346,00
-6748,98	343,00
-6731,76	283,00
-6714,56	311,00
-6697,40	285,00
-6680,26	297,00
-6663,16	270,00
-6646,09	360,00
-6629,05	272,00
-6612,05	273,00
-6595,07	113,00
-6578,13	284,00
-6561,21	339,00
-6544,33	398,00
-6527,47	318,00
-6510,65	401,00
-6493,86	268,00
-6477,10	290,00
-6460,36	381,00
-6443,66	286,00
-6426,99	322,00
-6410,35	301,00
-6393,74	350,00
-6377,16	220,00
-6360,61	263,00
-6344,09	192,00
-6327,59	257,00
-6311,13	363,00
-6294,70	382,00
-6278,29	274,00
-6261,92	262,00
-6245,58	241,00
-6229,26	394,00
-6212,97	362,00
-6196,72	231,00
-6180,49	361,00
-6164,29	349,00
-6148,12	502,00
-6131,98	522,00
-6115,86	453,00
-6099,78	416,00
-6083,72	330,00
-6067,69	375,00
-6051,69	344,00
-6035,72	506,00
-6019,78	419,00
-6003,87	449,00
-5987,98	281,00
-5972,12	362,00
-5956,29	266,00
-5940,49	225,00
-5924,71	495,00
-5908,96	405,00
-5893,24	425,00
-5877,55	366,00
-5861,89	434,00
-5846,25	223,00
-5830,64	306,00
-5815,05	325,00
-5799,50	351,00
-5783,97	512,00
-5768,47	369,00
-5752,99	432,00
-5737,55	222,00
-5722,12	266,00
-5706,73	314,00
-5691,36	367,00
-5676,02	402,00
-5660,71	487,00
-5645,42	399,00
-5630,16	431,00
-5614,92	447,00
-5599,71	350,00
-5584,53	343,00
-5569,37	291,00
-5554,24	1298,00
-5539,14	390,00
-5524,06	416,00
-5509,01	476,00
-5493,98	301,00
-5478,98	306,00
-5464,00	256,00
-5449,05	371,00
-5434,13	457,00
-5419,23	357,00
-5404,36	365,00
-5389,51	363,00
-5374,69	300,00
-5359,89	335,00
-5345,12	390,00
-5330,37	397,00
-5315,65	379,00
-5300,95	393,00
-5286,28	381,00
-5271,63	321,00
-5257,01	385,00
-5242,41	418,00
-5227,84	224,00
-5213,29	490,00
-5198,76	480,00
-5184,26	533,00
-5169,79	397,00
-5155,33	366,00
-5140,91	330,00
-5126,51	311,00
-5112,13	355,00
-5097,77	392,00
-5083,44	499,00
-5069,13	384,00
-5054,85	511,00
-5040,59	392,00
-5026,36	342,00
-5012,15	423,00
-4997,96	428,00
-4983,80	486,00
-4969,66	427,00
-4955,54	409,00
-4941,44	539,00
-4927,37	336,00
-4913,33	320,00
-4899,30	254,00
-4885,30	309,00
-4871,33	317,00
-4857,37	536,00
-4843,44	417,00
-4829,53	508,00
-4815,65	487,00
-4801,79	276,00
-4787,95	456,00
-4774,13	425,00
-4760,34	444,00
-4746,56	632,00
-4732,82	485,00
-4719,09	514,00
-4705,38	407,00
-4691,70	393,00
-4678,04	529,00
-4664,41	515,00
-4650,79	537,00
-4637,20	457,00
-4623,63	455,00
-4610,08	525,00
-4596,56	357,00
-4583,05	329,00
-4569,57	416,00
-4556,11	488,00
-4542,67	512,00
-4529,25	481,00
-4515,86	424,00
-4502,49	411,00
-4489,13	471,00
-4475,80	526,00
-4462,49	377,00
-4449,21	683,00
-4435,94	545,00
-4422,70	386,00
-4409,47	380,00
-4396,27	499,00
-4383,09	433,00
-4369,93	533,00
-4356,79	510,00
-4343,67	550,00
-4330,58	559,00
-4317,50	573,00
-4304,45	503,00
-4291,41	627,00
-4278,40	607,00
-4265,41	552,00
-4252,44	526,00
-4239,49	433,00
-4226,55	553,00
-4213,65	563,00
-4200,76	660,00
-4187,89	671,00
-4175,04	485,00
-4162,21	504,00
-4149,40	523,00
-4136,61	548,00
-4123,85	499,00
-4111,10	585,00
-4098,37	689,00
-4085,66	630,00
-4072,98	607,00
-4060,31	522,00
-4047,66	629,00
-4035,04	734,00
-4022,43	585,00
-4009,84	535,00
-3997,27	482,00
-3984,72	648,00
-3972,19	609,00
-3959,69	638,00
-3947,20	573,00
-3934,73	620,00
-3922,27	609,00
-3909,84	574,00
-3897,43	677,00
-3885,04	654,00
-3872,67	697,00
-3860,31	571,00
-3847,98	726,00
-3835,66	674,00
-3823,36	656,00
-3811,09	566,00
-3798,83	692,00
-3786,59	650,00
-3774,37	772,00
-3762,17	569,00
-3749,98	668,00
-3737,82	598,00
-3725,67	704,00
-3713,55	510,00
-3701,44	699,00
-3689,35	639,00
-3677,28	640,00
-3665,22	553,00
-3653,19	661,00
-3641,17	668,00
-3629,18	656,00
-3617,20	587,00
-3605,24	648,00
-3593,30	632,00
-3581,37	691,00
-3569,47	706,00
-3557,58	650,00
-3545,71	671,00
-3533,86	662,00
-3522,02	599,00
-3510,21	588,00
-3498,41	703,00
-3486,63	617,00
-3474,87	652,00
-3463,12	568,00
-3451,40	610,00
-3439,69	653,00
-3428,00	637,00
-3416,33	656,00
-3404,67	537,00
-3393,03	625,00
-3381,41	630,00
-3369,81	687,00
-3358,22	728,00
-3346,66	684,00
-3335,10	701,00
-3323,57	584,00
-3312,06	670,00
-3300,56	624,00
-3289,08	667,00
-3277,61	636,00
-3266,16	647,00
-3254,73	625,00
-3243,32	645,00
-3231,92	506,00
-3220,55	608,00
-3209,18	736,00
-3197,84	648,00
-3186,51	561,00
-3175,20	626,00
-3163,90	563,00
-3152,63	720,00
-3141,36	554,00
-3130,12	734,00
-3118,89	672,00
-3107,68	521,00
-3096,49	650,00
-3085,31	572,00
-3074,15	610,00
-3063,00	707,00
-3051,87	647,00
-3040,76	576,00
-3029,67	735,00
-3018,59	823,00
-3007,52	726,00
-2996,48	696,00
-2985,44	648,00
-2974,43	729,00
-2963,43	529,00
-2952,45	674,00
-2941,48	696,00
-2930,53	617,00
-2919,60	510,00
-2908,68	595,00
-2897,78	672,00
-2886,89	632,00
-2876,02	628,00
-2865,17	556,00
-2854,33	642,00
-2843,50	673,00
-2832,70	628,00
-2821,90	640,00
-2811,13	634,00
-2800,37	618,00
-2789,62	547,00
-2778,89	729,00
-2768,18	743,00
-2757,48	636,00
-2746,80	676,00
-2736,13	573,00
-2725,48	758,00
-2714,84	467,00
-2704,22	656,00
-2693,61	638,00
-2683,02	669,00
-2672,45	637,00
-2661,89	609,00
-2651,34	651,00
-2640,81	656,00
-2630,30	761,00
-2619,80	552,00
-2609,31	644,00
-2598,84	607,00
-2588,39	587,00
-2577,95	659,00
-2567,52	579,00
-2557,11	534,00
-2546,71	601,00
-2536,33	728,00
-2525,97	657,00
-2515,62	738,00
-2505,28	606,00
-2494,96	638,00
-2484,65	647,00
-2474,36	918,00
-2464,08	570,00
-2453,82	736,00
-2443,57	608,00
-2433,33	620,00
-2423,11	678,00
-2412,91	635,00
-2402,72	643,00
-2392,54	644,00
-2382,38	591,00
-2372,23	712,00
-2362,09	1494,00
-2351,97	587,00
-2341,87	569,00
-2331,78	598,00
-2321,70	744,00
-2311,64	630,00
-2301,59	608,00
-2291,55	604,00
-2281,53	690,00
-2271,53	591,00
-2261,53	679,00
-2251,55	626,00
-2241,59	633,00
-2231,64	666,00
-2221,70	611,00
-2211,78	593,00
-2201,87	693,00
-2191,97	641,00
-2182,09	620,00
-2172,22	669,00
-2162,37	562,00
-2152,53	578,00
-2142,70	592,00
-2132,89	608,00
-2123,09	709,00
-2113,30	712,00
-2103,53	645,00
-2093,77	702,00
-2084,02	595,00
-2074,29	697,00
-2064,57	723,00
-2054,86	686,00
-2045,17	687,00
-2035,49	677,00
-2025,82	564,00
-2016,17	620,00
-2006,53	558,00
-1996,91	647,00
-1987,29	576,00
-1977,69	683,00
-1968,11	655,00
-1958,53	539,00
-1948,97	615,00
-1939,42	616,00
-1929,89	584,00
-1920,37	587,00
-1910,86	614,00
-1901,36	589,00
-1891,88	619,00
-1882,41	662,00
-1872,95	725,00
-1863,51	720,00
-1854,08	560,00
-1844,66	719,00
-1835,26	738,00
-1825,86	700,00
-1816,48	552,00
-1807,11	719,00
-1797,76	695,00
-1788,42	654,00
-1779,09	700,00
-1769,77	630,00
-1760,47	746,00
-1751,17	572,00
-1741,89	604,00
-1732,63	672,00
-1723,37	770,00
-1714,13	745,00
-1704,90	641,00
-1695,68	740,00
-1686,48	518,00
-1677,29	665,00
-1668,11	752,00
-1658,94	578,00
-1649,78	601,00
-1640,64	627,00
-1631,51	589,00
-1622,39	707,00
-1613,28	678,00
-1604,19	775,00
-1595,10	655,00
-1586,03	590,00
-1576,97	620,00
-1567,93	595,00
-1558,89	661,00
-1549,87	693,00
-1540,86	617,00
-1531,86	692,00
-1522,87	588,00
-1513,90	706,00
-1504,93	706,00
-1495,98	671,00
-1487,04	728,00
-1478,12	615,00
-1469,20	665,00
-1460,30	625,00
-1451,40	729,00
-1442,52	596,00
-1433,65	731,00
-1424,80	618,00
-1415,95	629,00
-1407,12	785,00
-1398,30	687,00
-1389,48	641,00
-1380,69	566,00
-1371,90	586,00
-1363,12	670,00
-1354,36	763,00
-1345,60	585,00
-1336,86	640,00
-1328,13	771,00
-1319,41	605,00
-1310,70	570,00
-1302,01	569,00
-1293,32	590,00
-1284,65	609,00
-1275,99	709,00
-1267,33	798,00
-1258,69	639,00
-1250,06	566,00
-1241,45	534,00
-1232,84	759,00
-1224,25	632,00
-1215,66	663,00
-1207,09	702,00
-1198,53	622,00
-1189,97	675,00
-1181,43	553,00
-1172,91	620,00
-1164,39	693,00
-1155,88	641,00
-1147,38	533,00
-1138,90	703,00
-1130,43	574,00
-1121,96	630,00
-1113,51	681,00
-1105,07	703,00
-1096,64	683,00
-1088,22	630,00
-1079,81	701,00
-1071,41	680,00
-1063,02	559,00
-1054,65	758,00
-1046,28	672,00
-1037,92	679,00
-1029,58	615,00
-1021,24	708,00
-1012,92	866,00
-1004,61	656,00
-996,30	773,00
-988,01	538,00
-979,73	628,00
-971,46	678,00
-963,20	705,00
-954,95	610,00
-946,71	698,00
-938,48	646,00
-930,26	700,00
-922,06	646,00
-913,86	647,00
-905,67	590,00
-897,49	693,00
-889,33	494,00
-881,17	691,00
-873,02	614,00
-864,89	608,00
-856,76	636,00
-848,65	671,00
-840,54	696,00
-832,45	729,00
-824,36	604,00
-816,29	721,00
-808,22	717,00
-800,17	671,00
-792,12	663,00
-784,09	685,00
-776,06	635,00
-768,05	745,00
-760,04	645,00
-752,05	642,00
-744,07	638,00
-736,09	752,00
-728,13	532,00
-720,17	652,00
-712,23	568,00
-704,29	616,00
-696,37	624,00
-688,45	761,00
-680,55	612,00
-672,65	678,00
-664,77	639,00
-656,89	672,00
-649,03	662,00
-641,17	734,00
-633,32	754,00
-625,49	701,00
-617,66	610,00
-609,84	723,00
-602,03	489,00
-594,23	635,00
-586,45	655,00
-578,67	644,00
-570,90	687,00
-563,14	576,00
-555,39	710,00
-547,65	670,00
-539,91	695,00
-532,19	662,00
-524,48	743,00
-516,78	598,00
-509,08	690,00
-501,40	717,00
-493,72	576,00
-486,06	655,00
-478,40	715,00
-470,76	656,00
-463,12	530,00
-455,49	614,00
-447,87	638,00
-440,26	579,00
-432,66	574,00
-425,07	627,00
-417,49	759,00
-409,92	592,00
-402,35	643,00
-394,80	563,00
-387,25	675,00
-379,72	662,00
-372,19	650,00
-364,67	726,00
-357,17	626,00
-349,67	704,00
-342,18	658,00
-334,69	780,00
-327,22	649,00
-319,76	676,00
-312,30	662,00
-304,86	676,00
-297,42	736,00
-290,00	603,00
-282,58	709,00
-275,17	739,00
-267,77	802,00
-260,37	709,00
-252,99	852,00
-245,62	824,00
-238,25	730,00
-230,90	789,00
-223,55	852,00
-216,21	843,00
-208,88	993,00
-201,56	777,00
-194,25	976,00
-186,94	987,00
-179,65	1008,00
-172,36	1115,00
-165,08	1110,00
-157,81	1193,00
-150,55	1231,00
-143,30	1323,00
-136,06	1364,00
-128,82	1326,00
-121,60	1490,00
-114,38	1681,00
-107,17	1854,00
-99,97	2109,00
-92,78	2157,00
-85,60	2346,00
-78,42	2637,00
-71,25	2865,00
-64,10	3226,00
-56,95	3678,00
-49,81	4320,00
-42,67	5458,00
-35,55	6459,00
-28,43	8395,00
-21,33	13321,00
-14,23	42099,00
-7,14	57498,00
-0,05	57284,00
7,02	57012,00
14,09	57319,00
21,14	35447,00
28,19	15999,00
35,23	10297,00
42,27	8147,00
49,29	6663,00
56,31	5698,00
63,32	5048,00
70,32	4062,00
77,31	3683,00
84,29	3302,00
91,27	3017,00
98,23	2890,00
105,19	2883,00
112,14	3256,00
119,09	5255,00
126,02	8323,00
132,95	9623,00
139,87	9907,00
146,78	9971,00
153,68	9914,00
160,58	9784,00
167,46	9555,00
174,34	9770,00
181,21	9699,00
188,08	9616,00
194,93	9679,00
201,78	9562,00
208,62	9635,00
215,45	9874,00
222,27	9721,00
229,09	9672,00
235,90	9635,00
242,70	9633,00
249,49	9655,00
256,27	9504,00
263,05	9424,00
269,82	9515,00
276,58	9471,00
283,33	9334,00
290,08	9340,00
296,82	9244,00
303,55	9297,00
310,27	9104,00
316,98	9005,00
323,69	9257,00
330,39	9075,00
337,08	9118,00
343,76	9074,00
350,44	9108,00
357,11	9018,00
363,77	9107,00
370,42	8950,00
377,07	8989,00
383,71	9088,00
390,34	8955,00
396,96	9115,00
403,58	9149,00
410,19	9215,00
416,79	9276,00
423,38	9248,00
429,97	9056,00
436,55	8903,00
443,12	8816,00
449,68	8779,00
456,24	8807,00
462,79	8720,00
469,33	8711,00
475,86	8682,00
482,39	8608,00
488,91	8596,00
495,42	8461,00
501,93	8657,00
508,42	8466,00
514,91	8382,00
521,40	8243,00
527,87	8217,00
534,34	8329,00
540,80	8231,00
547,25	8391,00
553,70	8275,00
560,14	8249,00
566,57	8273,00
573,00	8235,00
579,41	8318,00
585,83	8384,00
592,23	8272,00
598,62	8229,00
605,01	8165,00
611,40	8110,00
617,77	8098,00
624,14	8125,00
630,50	8011,00
636,85	8051,00
643,20	7968,00
649,54	7855,00
655,87	8019,00
662,20	7864,00
668,52	7922,00
674,83	7916,00
681,13	7698,00
687,43	7979,00
693,72	7585,00
700,00	7590,00
706,28	7708,00
712,55	7733,00
718,81	7759,00
725,07	7622,00
731,32	7688,00
737,56	7734,00
743,79	7732,00
750,02	7874,00
756,24	7594,00
762,46	7684,00
768,67	7695,00
774,87	7705,00
781,06	7618,00
787,25	7727,00
793,43	7751,00
799,60	7726,00
805,77	7829,00
811,93	7772,00
818,08	7715,00
824,23	7569,00
830,37	7719,00
836,50	7695,00
842,63	7617,00
848,75	7562,00
854,87	7437,00
860,97	7651,00
867,07	7530,00
873,17	7490,00
879,25	7439,00
885,33	7498,00
891,41	7503,00
897,47	7317,00
903,53	7428,00
909,59	7365,00
915,63	7259,00
921,67	7336,00
927,71	7313,00
933,74	7211,00
939,76	7065,00
945,77	7062,00
951,78	7165,00
957,78	7078,00
963,78	7249,00
969,77	7118,00
975,75	7195,00
981,72	7127,00
987,69	8064,00
993,66	7308,00
999,61	7179,00
1005,56	6997,00
1011,51	7166,00
1017,44	7269,00
1023,37	7293,00
1029,30	7163,00
1035,22	7166,00
1041,13	7192,00
1047,03	7402,00
1052,93	7488,00
1058,83	8037,00
1064,71	8257,00
1070,59	7777,00
1076,47	7651,00
1082,33	7478,00
1088,20	7196,00
1094,05	7151,00
1099,90	6983,00
1105,74	7126,00
1111,58	7150,00
1117,41	7235,00
1123,23	7677,00
1129,05	7928,00
1134,86	7750,00
1140,67	7271,00
1146,47	7088,00
1152,26	7029,00
1158,05	6941,00
1163,83	6964,00
1169,60	7100,00
1175,37	6954,00
1181,13	6973,00
1186,89	6776,00
1192,64	6962,00
1198,38	7047,00
1204,12	6845,00
1209,85	6925,00
1215,58	6841,00
1221,30	6863,00
1227,02	6958,00
1232,72	6851,00
1238,43	6855,00
1244,12	6825,00
1249,81	6875,00
1255,50	6990,00
1261,17	7102,00
1266,85	7029,00
1272,51	7012,00
1278,17	7162,00
1283,83	7225,00
1289,47	7828,00
1295,12	8478,00
1300,75	8280,00
1306,38	7866,00
1312,01	7472,00
1317,63	7135,00
1323,24	7040,00
1328,85	7000,00
1334,45	7027,00
1340,04	6798,00
1345,63	6822,00
1351,22	6984,00
1356,80	6989,00
1362,37	6923,00
1367,93	6997,00
1373,49	7114,00
1379,05	6980,00
1384,60	7025,00
1390,14	6942,00
1395,68	6926,00
1401,21	7087,00
1406,74	7001,00
1412,26	7211,00
1417,77	7543,00
1423,28	7453,00
1428,78	7753,00
1434,28	8423,00
1439,77	8559,00
1445,26	8567,00
1450,74	8474,00
1456,22	8166,00
1461,68	8041,00
1467,15	7959,00
1472,61	7527,00
1478,06	7368,00
1483,51	7033,00
1488,95	6717,00
1494,38	6848,00
1499,81	6643,00
1505,24	6500,00
1510,65	6629,00
1516,07	6480,00
1521,48	6464,00
1526,88	6333,00
1532,27	6436,00
1537,67	6334,00
1543,05	6299,00
1548,43	6258,00
1553,81	6326,00
1559,18	6146,00
1564,54	6295,00
1569,90	6146,00
1575,25	6115,00
1580,60	6117,00
1585,94	6180,00
1591,28	6184,00
1596,61	6081,00
1601,93	6016,00
1607,25	6202,00
1612,57	5969,00
1617,88	6080,00
1623,18	6026,00
1628,48	6028,00
1633,77	5945,00
1639,06	5972,00
1644,34	5890,00
1649,62	5902,00
1654,89	5866,00
1660,16	5765,00
1665,42	5886,00
1670,67	5804,00
1675,92	5642,00
1681,17	5647,00
1686,41	5746,00
1691,64	5707,00
1696,87	5604,00
1702,10	5556,00
1707,32	5627,00
1712,53	5538,00
1717,74	5507,00
1722,94	5615,00
1728,14	5508,00
1733,33	5438,00
1738,52	5343,00
1743,70	5461,00
1748,88	5316,00
1754,05	5326,00
1759,22	5216,00
1764,38	4467,00
1769,53	5404,00
1774,69	5235,00
1779,83	5030,00
1784,97	5137,00
1790,11	5016,00
1795,24	5087,00
1800,36	5046,00
1805,48	4957,00
1810,60	5066,00
1815,71	5037,00
1820,82	4969,00
1825,92	5075,00
1831,01	4947,00
1836,10	4960,00
1841,19	5045,00
1846,26	4823,00
1851,34	4990,00
1856,41	4972,00
1861,47	4955,00
1866,53	4988,00
1871,59	4916,00
1876,64	4843,00
1881,68	4856,00
1886,72	4757,00
1891,76	4783,00
1896,79	4715,00
1901,81	4640,00
1906,83	4758,00
1911,85	4546,00
1916,86	4591,00
1921,86	4479,00
1926,86	4478,00
1931,86	4578,00
1936,85	4434,00
1941,83	4368,00
1946,81	4453,00
1951,79	4241,00
1956,76	4358,00
1961,72	4140,00
1966,68	4321,00
1971,64	4267,00
1976,59	4201,00
1981,54	4179,00
1986,48	4332,00
1991,42	4046,00
1996,35	4342,00
2001,27	3980,00
2006,20	4089,00
2011,11	4233,00
2016,03	4167,00
2020,93	4054,00
2025,84	4268,00
2030,73	4158,00
2035,63	4090,00
2040,52	4134,00
2045,40	3970,00
2050,28	3980,00
2055,15	3970,00
2060,02	3929,00
2064,89	4030,00
2069,75	4015,00
2074,60	3921,00
2079,46	3740,00
2084,30	3822,00
2089,14	3784,00
2093,98	4033,00
2098,81	3848,00
2103,64	3987,00
2108,46	4050,00
2113,28	4060,00
2118,09	3955,00
2122,90	3957,00
2127,70	3849,00
2132,50	3901,00
2137,30	3764,00
2142,09	3720,00
2146,87	3801,00
2151,66	3791,00
2156,43	3597,00
2161,20	3783,00
2165,97	3853,00
2170,73	3747,00
2175,49	3849,00
2180,24	3787,00
2184,99	3851,00
2189,74	3814,00
2194,48	3859,00
2199,21	3722,00
2203,94	3584,00
2208,67	3523,00
2213,39	3485,00
2218,11	3636,00
2222,82	3479,00
2227,53	3498,00
2232,23	3569,00
2236,93	3533,00
2241,63	3405,00
2246,32	3430,00
2251,00	3409,00
2255,68	3459,00
2260,36	3323,00
2265,03	3379,00
2269,70	3426,00
2274,36	3248,00
2279,02	3284,00
2283,68	3158,00
2288,33	3320,00
2292,97	3195,00
2297,61	3259,00
2302,25	3292,00
2306,88	3155,00
2311,51	3099,00
2316,14	3226,00
2320,75	3037,00
2325,37	3060,00
2329,98	3173,00
2334,59	3141,00
2339,19	3056,00
2343,79	2962,00
2348,38	3116,00
2352,97	2917,00
2357,55	3072,00
2362,13	2922,00
2366,71	2879,00
2371,28	3103,00
2375,85	2922,00
2380,41	2935,00
2384,97	2822,00
2389,52	2824,00
2394,07	2896,00
2398,62	2842,00
2403,16	2952,00
2407,70	2716,00
2412,23	2743,00
2416,76	2913,00
2421,29	2778,00
2425,81	2897,00
2430,32	2770,00
2434,84	2693,00
2439,34	2668,00
2443,85	2829,00
2448,35	2682,00
2452,84	2604,00
2457,33	2699,00
2461,82	2532,00
2466,30	2492,00
2470,78	2593,00
2475,25	2501,00
2479,72	2522,00
2484,19	2604,00
2488,65	2554,00
2493,11	2461,00
2497,56	2525,00
2502,01	2448,00
2506,46	2601,00
2510,90	2493,00
2515,34	2527,00
2519,77	2436,00
2524,20	2461,00
2528,62	2499,00
2533,04	2503,00
2537,46	2465,00
2541,87	2345,00
2546,28	2323,00
2550,68	2551,00
2555,08	2418,00
2559,48	2353,00
2563,87	2303,00
2568,26	2284,00
2572,64	2336,00
2577,02	2274,00
2581,40	2244,00
2585,77	2312,00
2590,14	2200,00
2594,50	2087,00
2598,86	2248,00
2603,22	2210,00
2607,57	2206,00
2611,92	2157,00
2616,26	2269,00
2620,60	2296,00
2624,94	2121,00
2629,27	2202,00
2633,60	2053,00
2637,92	2168,00
2642,24	2179,00
2646,56	2181,00
2650,87	2036,00
2655,18	2116,00
2659,48	2085,00
2663,78	2062,00
2668,08	2097,00
2672,37	2141,00
2676,66	2125,00
2680,95	1961,00
2685,23	2136,00
2689,50	2104,00
2693,78	2059,00
2698,05	2008,00
2702,31	2100,00
2706,57	2178,00
2710,83	2213,00
2715,08	2249,00
2719,33	2216,00
2723,58	2212,00
2727,82	2367,00
2732,06	2278,00
2736,29	2167,00
2740,53	2109,00
2744,75	2132,00
2748,97	2106,00
2753,19	2074,00
2757,41	2061,00
2761,62	2117,00
2765,83	2087,00
2770,03	2000,00
2774,23	2130,00
2778,43	1985,00
2782,62	1993,00
2786,81	1990,00
2791,00	1997,00
2795,18	2101,00
2799,35	2065,00
2803,53	2137,00
2807,70	2035,00
2811,86	2134,00
2816,03	2260,00
2820,19	2218,00
2824,34	2246,00
2828,49	2359,00
2832,64	2498,00
2836,78	2847,00
2840,92	3019,00
2845,06	3573,00
2849,19	3945,00
2853,32	3900,00
2857,45	3957,00
2861,57	3843,00
2865,69	3802,00
2869,80	3695,00
2873,91	3696,00
2878,02	3923,00
2882,12	4058,00
2886,22	4061,00
2890,32	3955,00
2894,41	3804,00
2898,50	3596,00
2902,58	3526,00
2906,67	3330,00
2910,74	3157,00
2914,82	2969,00
2918,89	3011,00
2922,96	2732,00
2927,02	2759,00
2931,08	2541,00
2935,13	2420,00
2939,19	2478,00
2943,24	2303,00
2947,28	2303,00
2951,32	2151,00
2955,36	1940,00
2959,40	2017,00
2963,43	1952,00
2967,46	1777,00
2971,48	1768,00
2975,50	1712,00
2979,52	1752,00
2983,53	1683,00
2987,54	1611,00
2991,55	1620,00
2995,55	1580,00
2999,55	1483,00
3003,54	1453,00
3007,54	1564,00
3011,53	1472,00
3015,51	1501,00
3019,49	1452,00
3023,47	1379,00
3027,45	1513,00
3031,42	1292,00
3035,39	1227,00
3039,35	1416,00
3043,31	1340,00
3047,27	1359,00
3051,22	1352,00
3055,17	1263,00
3059,12	1272,00
3063,06	1320,00
3067,00	1160,00
3070,94	1158,00
3074,87	1348,00
3078,80	1205,00
3082,73	1176,00
3086,65	1238,00
3090,57	1228,00
3094,49	1203,00
3098,40	1190,00
3102,31	1187,00
3106,22	1132,00
3110,12	1068,00
3114,02	1043,00
3117,92	1126,00
3121,81	1145,00
3125,70	1124,00
3129,58	1073,00
3133,47	1045,00
3137,34	1230,00
3141,22	1169,00
3145,09	1086,00
3148,96	1107,00
3152,83	1103,00
3156,69	1143,00
3160,55	1087,00
3164,40	1083,00
3168,26	1087,00
3172,10	1149,00
3175,95	1137,00
3179,79	1180,00
3183,63	1153,00
3187,47	1116,00
3191,30	1066,00
3195,13	1069,00
3198,95	965,00
3202,78	1081,00
3206,60	951,00
3210,41	964,00
3214,23	968,00
3218,03	989,00
3221,84	999,00
3225,64	984,00
3229,44	960,00
3233,24	1007,00
3237,03	1007,00
3240,82	916,00
3244,61	931,00
3248,39	914,00
3252,17	974,00
3255,95	962,00
3259,72	995,00
3263,49	1048,00
3267,26	903,00
3271,03	970,00
3274,79	887,00
3278,54	1013,00
3282,30	902,00
3286,05	1031,00
3289,80	959,00
3293,54	835,00
3297,29	985,00
3301,02	868,00
3304,76	898,00
3308,49	920,00
3312,22	844,00
3315,95	885,00
3319,67	838,00
3323,39	964,00
3327,10	885,00
3330,82	844,00
3334,53	902,00
3338,24	850,00
3341,94	831,00
3345,64	832,00
3349,34	813,00
3353,03	882,00
3356,72	794,00
3360,41	813,00
3364,10	783,00
3367,78	796,00
3371,46	745,00
3375,13	835,00
3378,81	832,00
3382,48	838,00
3386,14	869,00
3389,81	867,00
3393,47	832,00
3397,12	928,00
3400,78	843,00
3404,43	797,00
3408,08	884,00
3411,72	739,00
3415,36	739,00
3419,00	782,00
3422,64	723,00
3426,27	802,00
3429,90	797,00
3433,53	635,00
3437,15	760,00
3440,77	691,00
3444,39	748,00
3448,00	721,00
3451,62	773,00
3455,22	754,00
3458,83	676,00
3462,43	725,00
3466,03	800,00
3469,63	738,00
3473,22	717,00
3476,81	624,00
3480,40	795,00
3483,99	697,00
3487,57	690,00
3491,15	729,00
3494,72	727,00
3498,29	807,00
3501,86	713,00
3505,43	708,00
3508,99	673,00
3512,56	587,00
3516,11	737,00
3519,67	694,00
3523,22	790,00
3526,77	653,00
3530,32	879,00
3533,86	720,00
3537,40	753,00
3540,94	757,00
3544,47	598,00
3548,00	657,00
3551,53	653,00
3555,06	722,00
3558,58	712,00
3562,10	691,00
3565,62	665,00
3569,13	705,00
3572,64	764,00
3576,15	631,00
3579,66	694,00
3583,16	627,00
3586,66	698,00
3590,16	656,00
3593,65	515,00
3597,14	605,00
3600,63	691,00
3604,11	682,00
3607,60	633,00
3611,08	677,00
3614,55	628,00
3618,03	649,00
3621,50	582,00
3624,97	666,00
3628,43	550,00
3631,90	614,00
3635,36	536,00
3638,81	686,00
3642,27	525,00
3645,72	615,00
3649,17	586,00
3652,61	563,00
3656,06	624,00
3659,50	631,00
3662,93	640,00
3666,37	717,00
3669,80	789,00
3673,23	652,00
3676,65	504,00
3680,08	634,00
3683,50	626,00
3686,92	565,00
3690,33	540,00
3693,74	582,00
3697,15	522,00
3700,56	648,00
3703,96	651,00
3707,36	419,00
3710,76	544,00
3714,16	527,00
3717,55	503,00
3720,94	503,00
3724,33	613,00
3727,71	617,00
3731,10	615,00
3734,48	586,00
3737,85	501,00
3741,23	523,00
3744,60	510,00
3747,97	486,00
3751,33	639,00
3754,69	524,00
3758,05	537,00
3761,41	489,00
3764,77	497,00
3768,12	515,00
3771,47	485,00
3774,82	530,00
3778,16	-1,00
3781,50	10,00
3784,84	1,00
3788,18	10,00
>>>>>End Processed Spectral Data<<<<<
