SpectraSuite Data File
++++++++++++++++++++++++++++++++++++
Date: Mon Jan 05 16:28:40 ICT 2026
User: Administrator
Dark Spectrum Present: Yes
Reference Spectrum Present: No
Number of Sampled Component Spectra: 1
Spectrometers: MAYP113682
Integration Time (usec): 3000000 (MAYP113682)
Spectra Averaged: 1 (MAYP113682)
Boxcar Smoothing: 0 (MAYP113682)
Correct for Electrical Dark: No (MAYP113682)
Strobe/Lamp Enabled: No (MAYP113682)
Correct for Detector Non-linearity: No (MAYP113682)
Correct for Stray Light: No (MAYP113682)
Number of Pixels in Processed Spectrum: 2068
>>>>>Begin Processed Spectral Data<<<<<
-37534,58	21,00
-37414,56	6,00
-37295,11	2,00
-37176,24	4,00
-37057,95	417,00
-36940,22	502,00
-36823,05	510,00
-36706,45	558,00
-36590,40	554,00
-36474,90	497,00
-36359,95	585,00
-36245,55	610,00
-36131,68	465,00
-36018,35	513,00
-35905,55	604,00
-35793,29	599,00
-35681,54	430,00
-35570,32	611,00
-35459,62	521,00
-35349,43	598,00
-35239,75	616,00
-35130,58	625,00
-35021,91	563,00
-34913,74	555,00
-34806,07	593,00
-34698,89	598,00
-34592,20	525,00
-34486,00	521,00
-34380,28	617,00
-34275,04	616,00
-34170,27	552,00
-34065,98	624,00
-33962,16	721,00
-33858,81	653,00
-33755,92	561,00
-33653,49	703,00
-33551,52	685,00
-33450,01	629,00
-33348,94	630,00
-33248,33	580,00
-33148,16	573,00
-33048,43	632,00
-32949,14	666,00
-32850,29	725,00
-32751,87	529,00
-32653,89	655,00
-32556,33	678,00
-32459,20	614,00
-32362,49	648,00
-32266,19	704,00
-32170,32	580,00
-32074,86	628,00
-31979,82	744,00
-31885,18	709,00
-31790,95	676,00
-31697,12	725,00
-31603,69	579,00
-31510,67	650,00
-31418,04	674,00
-31325,80	589,00
-31233,95	547,00
-31142,49	669,00
-31051,42	556,00
-30960,73	687,00
-30870,43	679,00
-30780,50	698,00
-30690,95	724,00
-30601,77	671,00
-30512,97	595,00
-30424,53	663,00
-30336,46	618,00
-30248,76	647,00
-30161,42	764,00
-30074,44	571,00
-29987,81	686,00
-29901,55	742,00
-29815,63	634,00
-29730,07	698,00
-29644,86	783,00
-29560,00	640,00
-29475,48	651,00
-29391,30	656,00
-29307,47	699,00
-29223,97	637,00
-29140,81	662,00
-29057,99	687,00
-28975,50	599,00
-28893,34	731,00
-28811,51	615,00
-28730,00	681,00
-28648,82	585,00
-28567,97	713,00
-28487,43	640,00
-28407,21	596,00
-28327,32	531,00
-28247,73	729,00
-28168,46	589,00
-28089,50	738,00
-28010,85	487,00
-27932,51	591,00
-27854,48	556,00
-27776,75	530,00
-27699,32	700,00
-27622,19	626,00
-27545,37	731,00
-27468,84	664,00
-27392,60	685,00
-27316,66	628,00
-27241,01	549,00
-27165,66	596,00
-27090,59	488,00
-27015,81	662,00
-26941,31	693,00
-26867,10	586,00
-26793,17	733,00
-26719,52	585,00
-26646,15	629,00
-26573,06	624,00
-26500,24	596,00
-26427,70	622,00
-26355,43	573,00
-26283,43	660,00
-26211,71	620,00
-26140,25	732,00
-26069,06	653,00
-25998,13	533,00
-25927,46	565,00
-25857,06	533,00
-25786,92	684,00
-25717,04	554,00
-25647,42	705,00
-25578,05	555,00
-25508,94	622,00
-25440,09	636,00
-25371,48	562,00
-25303,13	703,00
-25235,02	577,00
-25167,17	687,00
-25099,56	715,00
-25032,19	616,00
-24965,07	531,00
-24898,20	517,00
-24831,56	541,00
-24765,17	656,00
-24699,01	535,00
-24633,10	732,00
-24567,41	591,00
-24501,97	625,00
-24436,75	629,00
-24371,77	564,00
-24307,03	536,00
-24242,51	671,00
-24178,22	568,00
-24114,16	642,00
-24050,32	660,00
-23986,71	644,00
-23923,32	578,00
-23860,16	680,00
-23797,22	614,00
-23734,50	590,00
-23672,00	583,00
-23609,71	559,00
-23547,65	540,00
-23485,80	621,00
-23424,16	509,00
-23362,74	722,00
-23301,53	662,00
-23240,54	532,00
-23179,75	547,00
-23119,17	589,00
-23058,80	619,00
-22998,64	683,00
-22938,68	726,00
-22878,93	599,00
-22819,39	529,00
-22760,04	570,00
-22700,90	570,00
-22641,96	609,00
-22583,22	599,00
-22524,68	583,00
-22466,33	602,00
-22408,19	652,00
-22350,23	569,00
-22292,48	559,00
-22234,92	663,00
-22177,55	689,00
-22120,37	773,00
-22063,38	537,00
-22006,58	625,00
-21949,98	588,00
-21893,56	487,00
-21837,33	646,00
-21781,28	564,00
-21725,42	601,00
-21669,74	644,00
-21614,25	633,00
-21558,94	651,00
-21503,81	714,00
-21448,86	684,00
-21394,10	566,00
-21339,51	616,00
-21285,10	489,00
-21230,86	503,00
-21176,81	578,00
-21122,93	558,00
-21069,22	485,00
-21015,69	600,00
-20962,33	721,00
-20909,14	610,00
-20856,13	617,00
-20803,28	635,00
-20750,61	578,00
-20698,10	511,00
-20645,76	576,00
-20593,59	664,00
-20541,59	795,00
-20489,75	629,00
-20438,07	539,00
-20386,56	625,00
-20335,22	540,00
-20284,03	558,00
-20233,01	585,00
-20182,15	532,00
-20131,45	642,00
-20080,91	575,00
-20030,52	656,00
-19980,30	622,00
-19930,23	519,00
-19880,32	614,00
-19830,56	583,00
-19780,96	623,00
-19731,52	622,00
-19682,23	627,00
-19633,09	550,00
-19584,10	527,00
-19535,26	526,00
-19486,58	692,00
-19438,04	542,00
-19389,66	654,00
-19341,42	590,00
-19293,33	598,00
-19245,39	582,00
-19197,60	607,00
-19149,95	664,00
-19102,45	599,00
-19055,09	462,00
-19007,87	574,00
-18960,80	682,00
-18913,87	600,00
-18867,09	553,00
-18820,44	742,00
-18773,94	582,00
-18727,57	633,00
-18681,35	526,00
-18635,26	668,00
-18589,31	545,00
-18543,50	580,00
-18497,83	610,00
-18452,29	677,00
-18406,89	531,00
-18361,63	627,00
-18316,50	658,00
-18271,50	545,00
-18226,63	691,00
-18181,90	695,00
-18137,30	649,00
-18092,84	580,00
-18048,50	654,00
-18004,29	484,00
-17960,22	508,00
-17916,27	522,00
-17872,45	668,00
-17828,76	699,00
-17785,20	612,00
-17741,77	686,00
-17698,46	649,00
-17655,28	517,00
-17612,22	627,00
-17569,29	514,00
-17526,48	686,00
-17483,79	694,00
-17441,23	535,00
-17398,79	596,00
-17356,48	582,00
-17314,28	729,00
-17272,21	635,00
-17230,26	583,00
-17188,42	622,00
-17146,71	684,00
-17105,12	626,00
-17063,64	617,00
-17022,28	653,00
-16981,04	606,00
-16939,92	640,00
-16898,91	754,00
-16858,02	563,00
-16817,25	640,00
-16776,59	602,00
-16736,04	573,00
-16695,61	689,00
-16655,29	585,00
-16615,09	558,00
-16574,99	579,00
-16535,01	605,00
-16495,15	586,00
-16455,39	529,00
-16415,74	519,00
-16376,21	543,00
-16336,78	541,00
-16297,46	566,00
-16258,26	550,00
-16219,16	584,00
-16180,17	652,00
-16141,28	674,00
-16102,51	647,00
-16063,84	551,00
-16025,27	591,00
-15986,82	531,00
-15948,46	572,00
-15910,22	648,00
-15872,07	545,00
-15834,04	631,00
-15796,10	625,00
-15758,27	671,00
-15720,54	590,00
-15682,91	599,00
-15645,39	760,00
-15607,97	599,00
-15570,64	583,00
-15533,42	641,00
-15496,30	575,00
-15459,28	656,00
-15422,36	574,00
-15385,54	509,00
-15348,82	587,00
-15312,19	800,00
-15275,66	571,00
-15239,23	679,00
-15202,90	546,00
-15166,67	567,00
-15130,53	611,00
-15094,48	668,00
-15058,54	543,00
-15022,68	596,00
-14986,93	540,00
-14951,26	716,00
-14915,69	713,00
-14880,22	534,00
-14844,84	638,00
-14809,55	608,00
-14774,35	657,00
-14739,25	555,00
-14704,24	603,00
-14669,32	546,00
-14634,49	582,00
-14599,75	560,00
-14565,10	511,00
-14530,55	566,00
-14496,08	641,00
-14461,70	697,00
-14427,41	593,00
-14393,21	499,00
-14359,10	534,00
-14325,07	626,00
-14291,14	576,00
-14257,29	678,00
-14223,52	567,00
-14189,85	674,00
-14156,26	634,00
-14122,76	517,00
-14089,34	496,00
-14056,01	578,00
-14022,76	645,00
-13989,60	649,00
-13956,52	695,00
-13923,53	615,00
-13890,62	565,00
-13857,79	542,00
-13825,05	526,00
-13792,39	515,00
-13759,81	638,00
-13727,31	623,00
-13694,90	617,00
-13662,57	645,00
-13630,31	651,00
-13598,14	603,00
-13566,05	527,00
-13534,05	573,00
-13502,12	604,00
-13470,27	603,00
-13438,50	676,00
-13406,80	568,00
-13375,19	608,00
-13343,66	626,00
-13312,20	606,00
-13280,83	562,00
-13249,53	614,00
-13218,30	525,00
-13187,16	538,00
-13156,09	764,00
-13125,10	680,00
-13094,18	632,00
-13063,34	598,00
-13032,58	540,00
-13001,89	607,00
-12971,28	579,00
-12940,74	603,00
-12910,27	586,00
-12879,88	662,00
-12849,57	681,00
-12819,33	696,00
-12789,16	667,00
-12759,06	570,00
-12729,04	568,00
-12699,09	1667,00
-12669,21	583,00
-12639,41	642,00
-12609,68	625,00
-12580,02	595,00
-12550,43	726,00
-12520,91	538,00
-12491,46	586,00
-12462,08	599,00
-12432,77	690,00
-12403,54	510,00
-12374,37	464,00
-12345,27	591,00
-12316,24	613,00
-12287,29	636,00
-12258,40	587,00
-12229,57	685,00
-12200,82	526,00
-12172,14	637,00
-12143,52	428,00
-12114,97	578,00
-12086,49	653,00
-12058,07	644,00
-12029,73	542,00
-12001,44	611,00
-11973,23	616,00
-11945,08	594,00
-11917,00	675,00
-11888,98	480,00
-11861,03	813,00
-11833,15	618,00
-11805,32	602,00
-11777,57	664,00
-11749,88	636,00
-11722,25	522,00
-11694,69	645,00
-11667,19	566,00
-11639,75	598,00
-11612,38	545,00
-11585,07	574,00
-11557,83	631,00
-11530,65	715,00
-11503,53	516,00
-11476,47	558,00
-11449,48	595,00
-11422,54	743,00
-11395,67	643,00
-11368,86	649,00
-11342,11	548,00
-11315,43	577,00
-11288,80	593,00
-11262,23	555,00
-11235,73	586,00
-11209,28	737,00
-11182,90	614,00
-11156,57	608,00
-11130,31	648,00
-11104,10	620,00
-11077,96	597,00
-11051,87	530,00
-11025,84	542,00
-10999,87	640,00
-10973,96	584,00
-10948,11	490,00
-10922,31	661,00
-10896,58	618,00
-10870,90	637,00
-10845,28	650,00
-10819,71	527,00
-10794,20	765,00
-10768,75	587,00
-10743,36	698,00
-10718,02	558,00
-10692,74	643,00
-10667,52	651,00
-10642,35	628,00
-10617,24	732,00
-10592,18	698,00
-10567,18	582,00
-10542,23	706,00
-10517,34	629,00
-10492,51	747,00
-10467,72	557,00
-10443,00	691,00
-10418,32	699,00
-10393,70	611,00
-10369,14	661,00
-10344,63	656,00
-10320,17	664,00
-10295,77	653,00
-10271,42	615,00
-10247,12	754,00
-10222,88	795,00
-10198,68	656,00
-10174,54	728,00
-10150,46	814,00
-10126,42	783,00
-10102,44	685,00
-10078,51	686,00
-10054,63	850,00
-10030,80	767,00
-10007,03	769,00
-9983,30	815,00
-9959,63	831,00
-9936,01	957,00
-9912,44	961,00
-9888,92	896,00
-9865,44	851,00
-9842,02	799,00
-9818,65	896,00
-9795,33	768,00
-9772,06	865,00
-9748,84	852,00
-9725,67	954,00
-9702,55	940,00
-9679,47	1135,00
-9656,45	1199,00
-9633,47	1035,00
-9610,55	1094,00
-9587,67	1198,00
-9564,84	1317,00
-9542,06	1277,00
-9519,32	1466,00
-9496,64	1571,00
-9474,00	1559,00
-9451,41	1608,00
-9428,87	1649,00
-9406,37	1571,00
-9383,92	1428,00
-9361,52	1363,00
-9339,17	1620,00
-9316,86	1745,00
-9294,60	1971,00
-9272,38	2065,00
-9250,21	2259,00
-9228,09	2360,00
-9206,01	2366,00
-9183,98	2226,00
-9162,00	1870,00
-9140,06	1969,00
-9118,16	2029,00
-9096,31	1942,00
-9074,51	2046,00
-9052,75	2295,00
-9031,04	2320,00
-9009,37	1973,00
-8987,74	1835,00
-8966,16	1759,00
-8944,63	1520,00
-8923,14	1492,00
-8901,69	1503,00
-8880,29	1520,00
-8858,93	1946,00
-8837,61	1986,00
-8816,34	1982,00
-8795,11	2095,00
-8773,92	1789,00
-8752,78	1756,00
-8731,68	1605,00
-8710,62	1765,00
-8689,61	1571,00
-8668,63	1870,00
-8647,70	2000,00
-8626,82	1918,00
-8605,97	1959,00
-8585,17	1798,00
-8564,41	1791,00
-8543,69	1575,00
-8523,01	1424,00
-8502,37	1509,00
-8481,78	1554,00
-8461,23	1588,00
-8440,71	1790,00
-8420,24	1953,00
-8399,81	2035,00
-8379,42	1798,00
-8359,08	1872,00
-8338,77	1627,00
-8318,50	1401,00
-8298,27	1411,00
-8278,09	1567,00
-8257,94	1600,00
-8237,83	1787,00
-8217,76	1809,00
-8197,74	1920,00
-8177,75	1886,00
-8157,80	1548,00
-8137,89	1523,00
-8118,02	1435,00
-8098,19	1534,00
-8078,40	1519,00
-8058,65	1457,00
-8038,93	1644,00
-8019,26	1606,00
-7999,62	1635,00
-7980,02	1517,00
-7960,46	1401,00
-7940,94	1363,00
-7921,46	1263,00
-7902,01	1241,00
-7882,60	1424,00
-7863,23	1348,00
-7843,90	1362,00
-7824,61	1339,00
-7805,35	1541,00
-7786,13	1551,00
-7766,95	1506,00
-7747,80	1516,00
-7728,69	1434,00
-7709,62	1470,00
-7690,59	1508,00
-7671,59	1546,00
-7652,63	1442,00
-7633,70	1508,00
-7614,81	1420,00
-7595,96	1422,00
-7577,15	1335,00
-7558,37	1168,00
-7539,62	1329,00
-7520,91	1352,00
-7502,24	1374,00
-7483,60	1397,00
-7465,00	1332,00
-7446,44	1231,00
-7427,91	972,00
-7409,41	1073,00
-7390,95	1037,00
-7372,53	970,00
-7354,14	1062,00
-7335,78	954,00
-7317,46	1037,00
-7299,18	1066,00
-7280,92	1181,00
-7262,71	1356,00
-7244,52	1322,00
-7226,38	1259,00
-7208,26	1287,00
-7190,18	1179,00
-7172,14	1144,00
-7154,12	1194,00
-7136,15	1127,00
-7118,20	1343,00
-7100,29	1353,00
-7082,41	1269,00
-7064,57	1173,00
-7046,76	1200,00
-7028,98	895,00
-7011,24	1027,00
-6993,53	802,00
-6975,85	863,00
-6958,20	829,00
-6940,59	760,00
-6923,01	669,00
-6905,46	965,00
-6887,94	917,00
-6870,46	1177,00
-6853,01	1135,00
-6835,59	1196,00
-6818,21	953,00
-6800,85	1007,00
-6783,53	883,00
-6766,24	743,00
-6748,98	693,00
-6731,76	699,00
-6714,56	594,00
-6697,40	569,00
-6680,26	641,00
-6663,16	714,00
-6646,09	864,00
-6629,05	972,00
-6612,05	1030,00
-6595,07	855,00
-6578,13	954,00
-6561,21	743,00
-6544,33	825,00
-6527,47	577,00
-6510,65	593,00
-6493,86	477,00
-6477,10	540,00
-6460,36	629,00
-6443,66	529,00
-6426,99	561,00
-6410,35	680,00
-6393,74	682,00
-6377,16	636,00
-6360,61	767,00
-6344,09	639,00
-6327,59	654,00
-6311,13	891,00
-6294,70	765,00
-6278,29	923,00
-6261,92	880,00
-6245,58	852,00
-6229,26	1004,00
-6212,97	848,00
-6196,72	703,00
-6180,49	729,00
-6164,29	626,00
-6148,12	715,00
-6131,98	673,00
-6115,86	585,00
-6099,78	508,00
-6083,72	520,00
-6067,69	536,00
-6051,69	519,00
-6035,72	559,00
-6019,78	627,00
-6003,87	684,00
-5987,98	753,00
-5972,12	766,00
-5956,29	783,00
-5940,49	648,00
-5924,71	820,00
-5908,96	618,00
-5893,24	634,00
-5877,55	543,00
-5861,89	675,00
-5846,25	420,00
-5830,64	550,00
-5815,05	535,00
-5799,50	602,00
-5783,97	662,00
-5768,47	681,00
-5752,99	796,00
-5737,55	616,00
-5722,12	681,00
-5706,73	783,00
-5691,36	755,00
-5676,02	736,00
-5660,71	610,00
-5645,42	598,00
-5630,16	626,00
-5614,92	750,00
-5599,71	556,00
-5584,53	624,00
-5569,37	569,00
-5554,24	1580,00
-5539,14	615,00
-5524,06	729,00
-5509,01	627,00
-5493,98	636,00
-5478,98	653,00
-5464,00	501,00
-5449,05	618,00
-5434,13	662,00
-5419,23	586,00
-5404,36	423,00
-5389,51	637,00
-5374,69	727,00
-5359,89	754,00
-5345,12	785,00
-5330,37	827,00
-5315,65	691,00
-5300,95	760,00
-5286,28	701,00
-5271,63	508,00
-5257,01	661,00
-5242,41	580,00
-5227,84	482,00
-5213,29	518,00
-5198,76	649,00
-5184,26	663,00
-5169,79	554,00
-5155,33	638,00
-5140,91	568,00
-5126,51	560,00
-5112,13	673,00
-5097,77	591,00
-5083,44	635,00
-5069,13	569,00
-5054,85	657,00
-5040,59	650,00
-5026,36	666,00
-5012,15	675,00
-4997,96	730,00
-4983,80	677,00
-4969,66	587,00
-4955,54	624,00
-4941,44	650,00
-4927,37	666,00
-4913,33	777,00
-4899,30	758,00
-4885,30	801,00
-4871,33	609,00
-4857,37	554,00
-4843,44	572,00
-4829,53	722,00
-4815,65	643,00
-4801,79	511,00
-4787,95	663,00
-4774,13	561,00
-4760,34	614,00
-4746,56	608,00
-4732,82	560,00
-4719,09	615,00
-4705,38	716,00
-4691,70	866,00
-4678,04	807,00
-4664,41	734,00
-4650,79	798,00
-4637,20	601,00
-4623,63	611,00
-4610,08	763,00
-4596,56	583,00
-4583,05	592,00
-4569,57	581,00
-4556,11	686,00
-4542,67	597,00
-4529,25	666,00
-4515,86	673,00
-4502,49	729,00
-4489,13	775,00
-4475,80	807,00
-4462,49	544,00
-4449,21	795,00
-4435,94	661,00
-4422,70	578,00
-4409,47	559,00
-4396,27	647,00
-4383,09	605,00
-4369,93	599,00
-4356,79	638,00
-4343,67	615,00
-4330,58	692,00
-4317,50	655,00
-4304,45	679,00
-4291,41	669,00
-4278,40	653,00
-4265,41	597,00
-4252,44	666,00
-4239,49	577,00
-4226,55	669,00
-4213,65	618,00
-4200,76	691,00
-4187,89	629,00
-4175,04	553,00
-4162,21	601,00
-4149,40	694,00
-4136,61	670,00
-4123,85	628,00
-4111,10	663,00
-4098,37	668,00
-4085,66	621,00
-4072,98	637,00
-4060,31	560,00
-4047,66	716,00
-4035,04	757,00
-4022,43	572,00
-4009,84	657,00
-3997,27	497,00
-3984,72	610,00
-3972,19	591,00
-3959,69	616,00
-3947,20	527,00
-3934,73	610,00
-3922,27	577,00
-3909,84	542,00
-3897,43	684,00
-3885,04	663,00
-3872,67	629,00
-3860,31	597,00
-3847,98	701,00
-3835,66	589,00
-3823,36	651,00
-3811,09	580,00
-3798,83	688,00
-3786,59	685,00
-3774,37	621,00
-3762,17	568,00
-3749,98	669,00
-3737,82	646,00
-3725,67	726,00
-3713,55	542,00
-3701,44	623,00
-3689,35	617,00
-3677,28	748,00
-3665,22	533,00
-3653,19	633,00
-3641,17	609,00
-3629,18	602,00
-3617,20	679,00
-3605,24	629,00
-3593,30	662,00
-3581,37	681,00
-3569,47	581,00
-3557,58	667,00
-3545,71	597,00
-3533,86	694,00
-3522,02	610,00
-3510,21	606,00
-3498,41	587,00
-3486,63	597,00
-3474,87	600,00
-3463,12	592,00
-3451,40	594,00
-3439,69	638,00
-3428,00	577,00
-3416,33	633,00
-3404,67	538,00
-3393,03	643,00
-3381,41	689,00
-3369,81	640,00
-3358,22	673,00
-3346,66	717,00
-3335,10	655,00
-3323,57	557,00
-3312,06	633,00
-3300,56	626,00
-3289,08	574,00
-3277,61	664,00
-3266,16	631,00
-3254,73	536,00
-3243,32	557,00
-3231,92	621,00
-3220,55	633,00
-3209,18	733,00
-3197,84	613,00
-3186,51	544,00
-3175,20	571,00
-3163,90	570,00
-3152,63	745,00
-3141,36	624,00
-3130,12	613,00
-3118,89	672,00
-3107,68	568,00
-3096,49	629,00
-3085,31	587,00
-3074,15	684,00
-3063,00	600,00
-3051,87	635,00
-3040,76	570,00
-3029,67	703,00
-3018,59	728,00
-3007,52	749,00
-2996,48	632,00
-2985,44	633,00
-2974,43	655,00
-2963,43	555,00
-2952,45	630,00
-2941,48	656,00
-2930,53	657,00
-2919,60	605,00
-2908,68	848,00
-2897,78	1534,00
-2886,89	1798,00
-2876,02	688,00
-2865,17	629,00
-2854,33	679,00
-2843,50	632,00
-2832,70	551,00
-2821,90	555,00
-2811,13	726,00
-2800,37	632,00
-2789,62	524,00
-2778,89	716,00
-2768,18	624,00
-2757,48	674,00
-2746,80	696,00
-2736,13	600,00
-2725,48	727,00
-2714,84	490,00
-2704,22	621,00
-2693,61	579,00
-2683,02	586,00
-2672,45	665,00
-2661,89	662,00
-2651,34	610,00
-2640,81	620,00
-2630,30	702,00
-2619,80	518,00
-2609,31	720,00
-2598,84	584,00
-2588,39	601,00
-2577,95	587,00
-2567,52	546,00
-2557,11	554,00
-2546,71	694,00
-2536,33	644,00
-2525,97	572,00
-2515,62	678,00
-2505,28	605,00
-2494,96	560,00
-2484,65	704,00
-2474,36	868,00
-2464,08	510,00
-2453,82	750,00
-2443,57	619,00
-2433,33	592,00
-2423,11	657,00
-2412,91	656,00
-2402,72	590,00
-2392,54	653,00
-2382,38	609,00
-2372,23	653,00
-2362,09	1451,00
-2351,97	536,00
-2341,87	513,00
-2331,78	718,00
-2321,70	645,00
-2311,64	566,00
-2301,59	714,00
-2291,55	580,00
-2281,53	654,00
-2271,53	495,00
-2261,53	661,00
-2251,55	715,00
-2241,59	600,00
-2231,64	637,00
-2221,70	548,00
-2211,78	641,00
-2201,87	624,00
-2191,97	632,00
-2182,09	631,00
-2172,22	653,00
-2162,37	640,00
-2152,53	551,00
-2142,70	624,00
-2132,89	612,00
-2123,09	607,00
-2113,30	583,00
-2103,53	554,00
-2093,77	612,00
-2084,02	547,00
-2074,29	730,00
-2064,57	696,00
-2054,86	715,00
-2045,17	776,00
-2035,49	684,00
-2025,82	515,00
-2016,17	644,00
-2006,53	568,00
-1996,91	730,00
-1987,29	498,00
-1977,69	651,00
-1968,11	507,00
-1958,53	587,00
-1948,97	543,00
-1939,42	567,00
-1929,89	576,00
-1920,37	676,00
-1910,86	590,00
-1901,36	696,00
-1891,88	594,00
-1882,41	624,00
-1872,95	649,00
-1863,51	579,00
-1854,08	640,00
-1844,66	738,00
-1835,26	723,00
-1825,86	708,00
-1816,48	612,00
-1807,11	726,00
-1797,76	635,00
-1788,42	672,00
-1779,09	573,00
-1769,77	638,00
-1760,47	762,00
-1751,17	574,00
-1741,89	607,00
-1732,63	664,00
-1723,37	749,00
-1714,13	655,00
-1704,90	643,00
-1695,68	841,00
-1686,48	529,00
-1677,29	607,00
-1668,11	765,00
-1658,94	613,00
-1649,78	624,00
-1640,64	644,00
-1631,51	572,00
-1622,39	668,00
-1613,28	680,00
-1604,19	696,00
-1595,10	640,00
-1586,03	478,00
-1576,97	632,00
-1567,93	532,00
-1558,89	678,00
-1549,87	639,00
-1540,86	596,00
-1531,86	636,00
-1522,87	558,00
-1513,90	658,00
-1504,93	674,00
-1495,98	711,00
-1487,04	636,00
-1478,12	535,00
-1469,20	574,00
-1460,30	636,00
-1451,40	764,00
-1442,52	663,00
-1433,65	654,00
-1424,80	578,00
-1415,95	630,00
-1407,12	802,00
-1398,30	637,00
-1389,48	697,00
-1380,69	551,00
-1371,90	564,00
-1363,12	682,00
-1354,36	774,00
-1345,60	612,00
-1336,86	600,00
-1328,13	672,00
-1319,41	615,00
-1310,70	607,00
-1302,01	596,00
-1293,32	528,00
-1284,65	690,00
-1275,99	713,00
-1267,33	771,00
-1258,69	692,00
-1250,06	593,00
-1241,45	543,00
-1232,84	792,00
-1224,25	674,00
-1215,66	631,00
-1207,09	747,00
-1198,53	654,00
-1189,97	689,00
-1181,43	530,00
-1172,91	634,00
-1164,39	726,00
-1155,88	592,00
-1147,38	526,00
-1138,90	540,00
-1130,43	556,00
-1121,96	630,00
-1113,51	608,00
-1105,07	643,00
-1096,64	747,00
-1088,22	728,00
-1079,81	749,00
-1071,41	770,00
-1063,02	529,00
-1054,65	695,00
-1046,28	707,00
-1037,92	680,00
-1029,58	677,00
-1021,24	668,00
-1012,92	836,00
-1004,61	617,00
-996,30	828,00
-988,01	548,00
-979,73	610,00
-971,46	722,00
-963,20	660,00
-954,95	514,00
-946,71	703,00
-938,48	615,00
-930,26	680,00
-922,06	600,00
-913,86	631,00
-905,67	564,00
-897,49	673,00
-889,33	564,00
-881,17	610,00
-873,02	684,00
-864,89	574,00
-856,76	643,00
-848,65	719,00
-840,54	694,00
-832,45	637,00
-824,36	517,00
-816,29	614,00
-808,22	691,00
-800,17	604,00
-792,12	671,00
-784,09	654,00
-776,06	598,00
-768,05	601,00
-760,04	569,00
-752,05	545,00
-744,07	648,00
-736,09	635,00
-728,13	546,00
-720,17	693,00
-712,23	605,00
-704,29	622,00
-696,37	656,00
-688,45	774,00
-680,55	589,00
-672,65	626,00
-664,77	668,00
-656,89	629,00
-649,03	549,00
-641,17	719,00
-633,32	691,00
-625,49	681,00
-617,66	627,00
-609,84	633,00
-602,03	543,00
-594,23	641,00
-586,45	654,00
-578,67	564,00
-570,90	679,00
-563,14	540,00
-555,39	640,00
-547,65	652,00
-539,91	645,00
-532,19	710,00
-524,48	724,00
-516,78	647,00
-509,08	718,00
-501,40	754,00
-493,72	583,00
-486,06	532,00
-478,40	767,00
-470,76	568,00
-463,12	668,00
-455,49	615,00
-447,87	644,00
-440,26	619,00
-432,66	589,00
-425,07	758,00
-417,49	666,00
-409,92	540,00
-402,35	666,00
-394,80	566,00
-387,25	646,00
-379,72	717,00
-372,19	716,00
-364,67	724,00
-357,17	649,00
-349,67	752,00
-342,18	610,00
-334,69	608,00
-327,22	634,00
-319,76	694,00
-312,30	687,00
-304,86	618,00
-297,42	677,00
-290,00	637,00
-282,58	709,00
-275,17	757,00
-267,77	838,00
-260,37	647,00
-252,99	891,00
-245,62	720,00
-238,25	775,00
-230,90	715,00
-223,55	836,00
-216,21	750,00
-208,88	922,00
-201,56	829,00
-194,25	957,00
-186,94	985,00
-179,65	988,00
-172,36	1038,00
-165,08	1031,00
-157,81	1137,00
-150,55	1083,00
-143,30	1114,00
-136,06	1221,00
-128,82	1250,00
-121,60	1362,00
-114,38	1581,00
-107,17	1653,00
-99,97	1811,00
-92,78	1976,00
-85,60	2044,00
-78,42	2287,00
-71,25	2517,00
-64,10	2880,00
-56,95	3234,00
-49,81	3782,00
-42,67	4593,00
-35,55	5475,00
-28,43	7254,00
-21,33	11845,00
-14,23	36459,00
-7,14	57498,00
-0,05	57284,00
7,02	57012,00
14,09	57319,00
21,14	31358,00
28,19	13806,00
35,23	8802,00
42,27	7132,00
49,29	5870,00
56,31	4888,00
63,32	4415,00
70,32	3614,00
77,31	3266,00
84,29	2811,00
91,27	2659,00
98,23	2466,00
105,19	2415,00
112,14	2725,00
119,09	4216,00
126,02	6605,00
132,95	7785,00
139,87	7901,00
146,78	8194,00
153,68	8051,00
160,58	7840,00
167,46	7879,00
174,34	7926,00
181,21	7955,00
188,08	7881,00
194,93	7948,00
201,78	7867,00
208,62	7985,00
215,45	8012,00
222,27	8005,00
229,09	8006,00
235,90	7947,00
242,70	8002,00
249,49	7919,00
256,27	7816,00
263,05	7797,00
269,82	7879,00
276,58	7777,00
283,33	7591,00
290,08	7638,00
296,82	7673,00
303,55	7499,00
310,27	7390,00
316,98	7380,00
323,69	7459,00
330,39	7449,00
337,08	7422,00
343,76	7428,00
350,44	7461,00
357,11	7409,00
363,77	7355,00
370,42	7341,00
377,07	7315,00
383,71	7410,00
390,34	7391,00
396,96	7543,00
403,58	7374,00
410,19	7613,00
416,79	7633,00
423,38	7559,00
429,97	7514,00
436,55	7207,00
443,12	7156,00
449,68	7176,00
456,24	7100,00
462,79	7045,00
469,33	7031,00
475,86	7043,00
482,39	6823,00
488,91	6936,00
495,42	6973,00
501,93	6917,00
508,42	6766,00
514,91	6818,00
521,40	6684,00
527,87	6748,00
534,34	6616,00
540,80	6660,00
547,25	6760,00
553,70	6771,00
560,14	6740,00
566,57	6691,00
573,00	6690,00
579,41	6768,00
585,83	6682,00
592,23	6735,00
598,62	6623,00
605,01	6616,00
611,40	6662,00
617,77	6696,00
624,14	6623,00
630,50	6565,00
636,85	6453,00
643,20	6500,00
649,54	6444,00
655,87	6531,00
662,20	6477,00
668,52	6350,00
674,83	6367,00
681,13	6309,00
687,43	6358,00
693,72	6272,00
700,00	6334,00
706,28	6124,00
712,55	6383,00
718,81	6359,00
725,07	6154,00
731,32	6317,00
737,56	6362,00
743,79	6328,00
750,02	6271,00
756,24	6204,00
762,46	6211,00
768,67	6483,00
774,87	6124,00
781,06	6266,00
787,25	6329,00
793,43	6350,00
799,60	6233,00
805,77	6347,00
811,93	6252,00
818,08	6272,00
824,23	6209,00
830,37	6451,00
836,50	6141,00
842,63	6118,00
848,75	6159,00
854,87	6060,00
860,97	6217,00
867,07	6068,00
873,17	6121,00
879,25	6106,00
885,33	6107,00
891,41	6231,00
897,47	6238,00
903,53	5976,00
909,59	5975,00
915,63	5932,00
921,67	5973,00
927,71	5979,00
933,74	5892,00
939,76	5777,00
945,77	5816,00
951,78	5885,00
957,78	5840,00
963,78	5943,00
969,77	5866,00
975,75	5794,00
981,72	5750,00
987,69	6758,00
993,66	5848,00
999,61	5904,00
1005,56	5848,00
1011,51	5860,00
1017,44	5890,00
1023,37	5889,00
1029,30	5892,00
1035,22	5932,00
1041,13	5770,00
1047,03	5982,00
1052,93	6133,00
1058,83	6447,00
1064,71	6786,00
1070,59	6515,00
1076,47	6171,00
1082,33	5992,00
1088,20	6024,00
1094,05	5901,00
1099,90	5673,00
1105,74	5748,00
1111,58	5814,00
1117,41	5934,00
1123,23	6129,00
1129,05	6427,00
1134,86	6323,00
1140,67	6061,00
1146,47	5749,00
1152,26	5757,00
1158,05	5726,00
1163,83	5815,00
1169,60	5716,00
1175,37	5810,00
1181,13	5725,00
1186,89	5687,00
1192,64	5636,00
1198,38	5736,00
1204,12	5483,00
1209,85	5624,00
1215,58	5730,00
1221,30	5713,00
1227,02	5635,00
1232,72	5628,00
1238,43	5544,00
1244,12	5600,00
1249,81	5738,00
1255,50	5836,00
1261,17	5659,00
1266,85	5689,00
1272,51	5768,00
1278,17	5778,00
1283,83	5949,00
1289,47	6500,00
1295,12	6900,00
1300,75	6726,00
1306,38	6396,00
1312,01	6215,00
1317,63	5943,00
1323,24	5890,00
1328,85	5614,00
1334,45	5707,00
1340,04	5789,00
1345,63	5736,00
1351,22	5771,00
1356,80	5819,00
1362,37	5918,00
1367,93	5798,00
1373,49	5904,00
1379,05	5717,00
1384,60	5620,00
1390,14	5826,00
1395,68	5770,00
1401,21	5746,00
1406,74	5847,00
1412,26	6008,00
1417,77	6267,00
1423,28	6108,00
1428,78	6471,00
1434,28	6782,00
1439,77	7130,00
1445,26	7170,00
1450,74	7116,00
1456,22	6721,00
1461,68	6666,00
1467,15	6581,00
1472,61	6273,00
1478,06	6043,00
1483,51	5866,00
1488,95	5648,00
1494,38	5610,00
1499,81	5492,00
1505,24	5456,00
1510,65	5392,00
1516,07	5498,00
1521,48	5360,00
1526,88	5339,00
1532,27	5347,00
1537,67	5253,00
1543,05	5268,00
1548,43	5375,00
1553,81	5323,00
1559,18	5103,00
1564,54	5142,00
1569,90	5128,00
1575,25	5103,00
1580,60	4961,00
1585,94	5236,00
1591,28	5096,00
1596,61	5068,00
1601,93	4968,00
1607,25	5091,00
1612,57	5006,00
1617,88	5075,00
1623,18	5029,00
1628,48	4900,00
1633,77	4980,00
1639,06	4954,00
1644,34	4891,00
1649,62	4862,00
1654,89	4867,00
1660,16	4787,00
1665,42	4941,00
1670,67	4828,00
1675,92	4762,00
1681,17	4799,00
1686,41	4699,00
1691,64	4688,00
1696,87	4866,00
1702,10	4718,00
1707,32	4654,00
1712,53	4660,00
1717,74	4607,00
1722,94	4668,00
1728,14	4497,00
1733,33	4544,00
1738,52	4420,00
1743,70	4392,00
1748,88	4475,00
1754,05	4390,00
1759,22	4458,00
1764,38	3547,00
1769,53	4334,00
1774,69	4366,00
1779,83	4150,00
1784,97	4315,00
1790,11	4244,00
1795,24	4227,00
1800,36	4260,00
1805,48	4199,00
1810,60	4295,00
1815,71	4165,00
1820,82	4104,00
1825,92	4250,00
1831,01	4171,00
1836,10	4188,00
1841,19	4204,00
1846,26	4106,00
1851,34	4134,00
1856,41	4116,00
1861,47	4098,00
1866,53	4127,00
1871,59	4162,00
1876,64	4089,00
1881,68	3993,00
1886,72	4008,00
1891,76	4052,00
1896,79	3889,00
1901,81	3857,00
1906,83	3941,00
1911,85	3770,00
1916,86	3901,00
1921,86	3668,00
1926,86	3800,00
1931,86	3856,00
1936,85	3708,00
1941,83	3583,00
1946,81	3671,00
1951,79	3595,00
1956,76	3597,00
1961,72	3457,00
1966,68	3579,00
1971,64	3570,00
1976,59	3609,00
1981,54	3540,00
1986,48	3518,00
1991,42	3352,00
1996,35	3697,00
2001,27	3561,00
2006,20	3460,00
2011,11	3429,00
2016,03	3479,00
2020,93	3219,00
2025,84	3480,00
2030,73	3449,00
2035,63	3366,00
2040,52	3435,00
2045,40	3329,00
2050,28	3352,00
2055,15	3256,00
2060,02	3245,00
2064,89	3262,00
2069,75	3320,00
2074,60	3301,00
2079,46	3232,00
2084,30	3169,00
2089,14	3201,00
2093,98	3401,00
2098,81	3313,00
2103,64	3289,00
2108,46	3214,00
2113,28	3317,00
2118,09	3279,00
2122,90	3299,00
2127,70	3186,00
2132,50	3131,00
2137,30	3206,00
2142,09	2968,00
2146,87	3058,00
2151,66	3138,00
2156,43	3104,00
2161,20	3128,00
2165,97	3154,00
2170,73	3133,00
2175,49	3111,00
2180,24	3053,00
2184,99	3179,00
2189,74	3221,00
2194,48	3037,00
2199,21	3119,00
2203,94	3112,00
2208,67	2912,00
2213,39	2870,00
2218,11	3000,00
2222,82	2949,00
2227,53	2997,00
2232,23	2885,00
2236,93	2954,00
2241,63	2799,00
2246,32	2925,00
2251,00	2893,00
2255,68	2864,00
2260,36	2810,00
2265,03	2791,00
2269,70	2922,00
2274,36	2793,00
2279,02	2783,00
2283,68	2673,00
2288,33	2833,00
2292,97	2785,00
2297,61	2800,00
2302,25	2747,00
2306,88	2710,00
2311,51	2666,00
2316,14	2624,00
2320,75	2627,00
2325,37	2543,00
2329,98	2650,00
2334,59	2636,00
2339,19	2683,00
2343,79	2492,00
2348,38	2542,00
2352,97	2463,00
2357,55	2608,00
2362,13	2624,00
2366,71	2512,00
2371,28	2695,00
2375,85	2530,00
2380,41	2467,00
2384,97	2308,00
2389,52	2528,00
2394,07	2485,00
2398,62	2407,00
2403,16	2521,00
2407,70	2381,00
2412,23	2332,00
2416,76	2490,00
2421,29	2340,00
2425,81	2528,00
2430,32	2446,00
2434,84	2275,00
2439,34	2204,00
2443,85	2419,00
2448,35	2197,00
2452,84	2200,00
2457,33	2297,00
2461,82	2229,00
2466,30	2271,00
2470,78	2274,00
2475,25	2240,00
2479,72	2148,00
2484,19	2182,00
2488,65	2276,00
2493,11	2181,00
2497,56	2253,00
2502,01	2079,00
2506,46	2140,00
2510,90	2054,00
2515,34	2086,00
2519,77	2122,00
2524,20	2176,00
2528,62	2172,00
2533,04	2180,00
2537,46	2179,00
2541,87	2117,00
2546,28	2094,00
2550,68	2132,00
2555,08	2078,00
2559,48	2035,00
2563,87	1924,00
2568,26	2011,00
2572,64	1988,00
2577,02	1962,00
2581,40	1886,00
2585,77	2036,00
2590,14	1902,00
2594,50	1888,00
2598,86	1993,00
2603,22	1888,00
2607,57	1844,00
2611,92	1912,00
2616,26	1952,00
2620,60	1952,00
2624,94	1884,00
2629,27	1885,00
2633,60	1857,00
2637,92	1882,00
2642,24	1961,00
2646,56	1891,00
2650,87	1721,00
2655,18	1911,00
2659,48	1788,00
2663,78	1748,00
2668,08	1820,00
2672,37	1991,00
2676,66	1814,00
2680,95	1737,00
2685,23	1825,00
2689,50	1854,00
2693,78	1836,00
2698,05	1777,00
2702,31	1848,00
2706,57	1971,00
2710,83	1959,00
2715,08	2021,00
2719,33	1925,00
2723,58	1965,00
2727,82	1909,00
2732,06	1903,00
2736,29	1943,00
2740,53	1833,00
2744,75	1870,00
2748,97	1809,00
2753,19	1800,00
2757,41	1796,00
2761,62	1866,00
2765,83	1770,00
2770,03	1712,00
2774,23	1801,00
2778,43	1670,00
2782,62	1700,00
2786,81	1784,00
2791,00	1837,00
2795,18	1754,00
2799,35	1846,00
2803,53	1807,00
2807,70	1883,00
2811,86	1805,00
2816,03	2034,00
2820,19	1874,00
2824,34	1995,00
2828,49	1984,00
2832,64	2171,00
2836,78	2497,00
2840,92	2574,00
2845,06	3055,00
2849,19	3291,00
2853,32	3311,00
2857,45	3261,00
2861,57	3329,00
2865,69	3225,00
2869,80	3117,00
2873,91	3173,00
2878,02	3398,00
2882,12	3433,00
2886,22	3413,00
2890,32	3303,00
2894,41	3194,00
2898,50	3043,00
2902,58	2931,00
2906,67	2970,00
2910,74	2758,00
2914,82	2594,00
2918,89	2645,00
2922,96	2440,00
2927,02	2255,00
2931,08	2269,00
2935,13	2210,00
2939,19	2117,00
2943,24	1941,00
2947,28	2082,00
2951,32	1779,00
2955,36	1695,00
2959,40	1740,00
2963,43	1685,00
2967,46	1579,00
2971,48	1519,00
2975,50	1528,00
2979,52	1567,00
2983,53	1506,00
2987,54	1459,00
2991,55	1307,00
2995,55	1405,00
2999,55	1348,00
3003,54	1316,00
3007,54	1334,00
3011,53	1280,00
3015,51	1343,00
3019,49	1346,00
3023,47	1168,00
3027,45	1228,00
3031,42	1218,00
3035,39	1221,00
3039,35	1115,00
3043,31	1273,00
3047,27	1232,00
3051,22	1265,00
3055,17	1165,00
3059,12	1210,00
3063,06	1160,00
3067,00	1055,00
3070,94	1060,00
3074,87	1237,00
3078,80	1083,00
3082,73	1146,00
3086,65	1091,00
3090,57	1183,00
3094,49	1064,00
3098,40	1037,00
3102,31	1070,00
3106,22	1001,00
3110,12	992,00
3114,02	959,00
3117,92	1047,00
3121,81	950,00
3125,70	1022,00
3129,58	996,00
3133,47	902,00
3137,34	1038,00
3141,22	1111,00
3145,09	1030,00
3148,96	1006,00
3152,83	1094,00
3156,69	1070,00
3160,55	964,00
3164,40	1020,00
3168,26	972,00
3172,10	1129,00
3175,95	983,00
3179,79	958,00
3183,63	980,00
3187,47	858,00
3191,30	1029,00
3195,13	917,00
3198,95	929,00
3202,78	899,00
3206,60	850,00
3210,41	886,00
3214,23	888,00
3218,03	921,00
3221,84	939,00
3225,64	901,00
3229,44	835,00
3233,24	935,00
3237,03	926,00
3240,82	821,00
3244,61	829,00
3248,39	898,00
3252,17	883,00
3255,95	951,00
3259,72	914,00
3263,49	998,00
3267,26	899,00
3271,03	894,00
3274,79	831,00
3278,54	974,00
3282,30	756,00
3286,05	909,00
3289,80	880,00
3293,54	979,00
3297,29	856,00
3301,02	869,00
3304,76	830,00
3308,49	910,00
3312,22	776,00
3315,95	881,00
3319,67	707,00
3323,39	909,00
3327,10	838,00
3330,82	828,00
3334,53	812,00
3338,24	744,00
3341,94	797,00
3345,64	814,00
3349,34	739,00
3353,03	842,00
3356,72	853,00
3360,41	874,00
3364,10	759,00
3367,78	788,00
3371,46	809,00
3375,13	747,00
3378,81	787,00
3382,48	696,00
3386,14	848,00
3389,81	809,00
3393,47	749,00
3397,12	868,00
3400,78	808,00
3404,43	771,00
3408,08	701,00
3411,72	686,00
3415,36	758,00
3419,00	753,00
3422,64	752,00
3426,27	752,00
3429,90	732,00
3433,53	737,00
3437,15	666,00
3440,77	636,00
3444,39	686,00
3448,00	732,00
3451,62	737,00
3455,22	717,00
3458,83	647,00
3462,43	720,00
3466,03	771,00
3469,63	698,00
3473,22	732,00
3476,81	636,00
3480,40	756,00
3483,99	716,00
3487,57	721,00
3491,15	705,00
3494,72	729,00
3498,29	767,00
3501,86	694,00
3505,43	664,00
3508,99	728,00
3512,56	502,00
3516,11	721,00
3519,67	672,00
3523,22	631,00
3526,77	623,00
3530,32	868,00
3533,86	702,00
3537,40	768,00
3540,94	690,00
3544,47	640,00
3548,00	601,00
3551,53	779,00
3555,06	677,00
3558,58	681,00
3562,10	760,00
3565,62	557,00
3569,13	694,00
3572,64	777,00
3576,15	628,00
3579,66	618,00
3583,16	619,00
3586,66	663,00
3590,16	626,00
3593,65	579,00
3597,14	649,00
3600,63	626,00
3604,11	589,00
3607,60	679,00
3611,08	660,00
3614,55	656,00
3618,03	637,00
3621,50	583,00
3624,97	636,00
3628,43	561,00
3631,90	627,00
3635,36	571,00
3638,81	603,00
3642,27	611,00
3645,72	689,00
3649,17	588,00
3652,61	562,00
3656,06	557,00
3659,50	622,00
3662,93	650,00
3666,37	612,00
3669,80	763,00
3673,23	643,00
3676,65	539,00
3680,08	654,00
3683,50	539,00
3686,92	540,00
3690,33	577,00
3693,74	577,00
3697,15	564,00
3700,56	658,00
3703,96	513,00
3707,36	554,00
3710,76	501,00
3714,16	517,00
3717,55	553,00
3720,94	446,00
3724,33	517,00
3727,71	609,00
3731,10	469,00
3734,48	663,00
3737,85	549,00
3741,23	583,00
3744,60	486,00
3747,97	464,00
3751,33	657,00
3754,69	552,00
3758,05	566,00
3761,41	524,00
3764,77	545,00
3768,12	516,00
3771,47	505,00
3774,82	554,00
3778,16	-5,00
3781,50	8,00
3784,84	6,00
3788,18	8,00
>>>>>End Processed Spectral Data<<<<<
