SpectraSuite Data File
++++++++++++++++++++++++++++++++++++
Date: Mon Jan 05 16:29:10 ICT 2026
User: Administrator
Dark Spectrum Present: Yes
Reference Spectrum Present: No
Number of Sampled Component Spectra: 1
Spectrometers: MAYP113682
Integration Time (usec): 3000000 (MAYP113682)
Spectra Averaged: 1 (MAYP113682)
Boxcar Smoothing: 0 (MAYP113682)
Correct for Electrical Dark: No (MAYP113682)
Strobe/Lamp Enabled: No (MAYP113682)
Correct for Detector Non-linearity: No (MAYP113682)
Correct for Stray Light: No (MAYP113682)
Number of Pixels in Processed Spectrum: 2068
>>>>>Begin Processed Spectral Data<<<<<
-37534,58	27,00
-37414,56	1,00
-37295,11	8,00
-37176,24	8,00
-37057,95	405,00
-36940,22	462,00
-36823,05	524,00
-36706,45	547,00
-36590,40	603,00
-36474,90	563,00
-36359,95	658,00
-36245,55	580,00
-36131,68	519,00
-36018,35	609,00
-35905,55	533,00
-35793,29	650,00
-35681,54	513,00
-35570,32	636,00
-35459,62	608,00
-35349,43	649,00
-35239,75	589,00
-35130,58	599,00
-35021,91	613,00
-34913,74	528,00
-34806,07	604,00
-34698,89	680,00
-34592,20	646,00
-34486,00	602,00
-34380,28	685,00
-34275,04	532,00
-34170,27	525,00
-34065,98	673,00
-33962,16	642,00
-33858,81	715,00
-33755,92	617,00
-33653,49	751,00
-33551,52	676,00
-33450,01	680,00
-33348,94	667,00
-33248,33	688,00
-33148,16	594,00
-33048,43	584,00
-32949,14	761,00
-32850,29	676,00
-32751,87	675,00
-32653,89	712,00
-32556,33	681,00
-32459,20	642,00
-32362,49	681,00
-32266,19	695,00
-32170,32	669,00
-32074,86	678,00
-31979,82	698,00
-31885,18	726,00
-31790,95	666,00
-31697,12	677,00
-31603,69	706,00
-31510,67	686,00
-31418,04	671,00
-31325,80	641,00
-31233,95	620,00
-31142,49	651,00
-31051,42	606,00
-30960,73	682,00
-30870,43	709,00
-30780,50	638,00
-30690,95	702,00
-30601,77	759,00
-30512,97	714,00
-30424,53	650,00
-30336,46	667,00
-30248,76	677,00
-30161,42	753,00
-30074,44	548,00
-29987,81	721,00
-29901,55	763,00
-29815,63	607,00
-29730,07	665,00
-29644,86	655,00
-29560,00	735,00
-29475,48	660,00
-29391,30	651,00
-29307,47	705,00
-29223,97	598,00
-29140,81	667,00
-29057,99	803,00
-28975,50	557,00
-28893,34	793,00
-28811,51	697,00
-28730,00	754,00
-28648,82	667,00
-28567,97	647,00
-28487,43	646,00
-28407,21	664,00
-28327,32	608,00
-28247,73	812,00
-28168,46	658,00
-28089,50	681,00
-28010,85	634,00
-27932,51	584,00
-27854,48	693,00
-27776,75	650,00
-27699,32	657,00
-27622,19	602,00
-27545,37	687,00
-27468,84	642,00
-27392,60	637,00
-27316,66	733,00
-27241,01	633,00
-27165,66	567,00
-27090,59	558,00
-27015,81	715,00
-26941,31	702,00
-26867,10	651,00
-26793,17	817,00
-26719,52	678,00
-26646,15	642,00
-26573,06	603,00
-26500,24	645,00
-26427,70	663,00
-26355,43	671,00
-26283,43	636,00
-26211,71	649,00
-26140,25	649,00
-26069,06	726,00
-25998,13	563,00
-25927,46	614,00
-25857,06	591,00
-25786,92	632,00
-25717,04	686,00
-25647,42	695,00
-25578,05	555,00
-25508,94	618,00
-25440,09	685,00
-25371,48	614,00
-25303,13	708,00
-25235,02	597,00
-25167,17	648,00
-25099,56	591,00
-25032,19	583,00
-24965,07	545,00
-24898,20	536,00
-24831,56	580,00
-24765,17	698,00
-24699,01	577,00
-24633,10	721,00
-24567,41	636,00
-24501,97	607,00
-24436,75	629,00
-24371,77	640,00
-24307,03	560,00
-24242,51	678,00
-24178,22	621,00
-24114,16	593,00
-24050,32	680,00
-23986,71	693,00
-23923,32	568,00
-23860,16	673,00
-23797,22	608,00
-23734,50	699,00
-23672,00	611,00
-23609,71	634,00
-23547,65	573,00
-23485,80	725,00
-23424,16	555,00
-23362,74	707,00
-23301,53	622,00
-23240,54	524,00
-23179,75	561,00
-23119,17	556,00
-23058,80	565,00
-22998,64	724,00
-22938,68	603,00
-22878,93	691,00
-22819,39	579,00
-22760,04	585,00
-22700,90	677,00
-22641,96	716,00
-22583,22	715,00
-22524,68	622,00
-22466,33	589,00
-22408,19	686,00
-22350,23	607,00
-22292,48	604,00
-22234,92	622,00
-22177,55	691,00
-22120,37	749,00
-22063,38	563,00
-22006,58	639,00
-21949,98	672,00
-21893,56	544,00
-21837,33	650,00
-21781,28	662,00
-21725,42	646,00
-21669,74	633,00
-21614,25	648,00
-21558,94	647,00
-21503,81	683,00
-21448,86	680,00
-21394,10	610,00
-21339,51	619,00
-21285,10	526,00
-21230,86	598,00
-21176,81	594,00
-21122,93	612,00
-21069,22	547,00
-21015,69	601,00
-20962,33	718,00
-20909,14	659,00
-20856,13	628,00
-20803,28	777,00
-20750,61	521,00
-20698,10	486,00
-20645,76	571,00
-20593,59	697,00
-20541,59	761,00
-20489,75	655,00
-20438,07	527,00
-20386,56	690,00
-20335,22	577,00
-20284,03	626,00
-20233,01	658,00
-20182,15	604,00
-20131,45	619,00
-20080,91	512,00
-20030,52	677,00
-19980,30	556,00
-19930,23	579,00
-19880,32	653,00
-19830,56	586,00
-19780,96	622,00
-19731,52	573,00
-19682,23	692,00
-19633,09	597,00
-19584,10	617,00
-19535,26	658,00
-19486,58	684,00
-19438,04	573,00
-19389,66	759,00
-19341,42	640,00
-19293,33	616,00
-19245,39	607,00
-19197,60	696,00
-19149,95	618,00
-19102,45	685,00
-19055,09	626,00
-19007,87	665,00
-18960,80	682,00
-18913,87	623,00
-18867,09	655,00
-18820,44	682,00
-18773,94	513,00
-18727,57	660,00
-18681,35	442,00
-18635,26	669,00
-18589,31	594,00
-18543,50	620,00
-18497,83	626,00
-18452,29	693,00
-18406,89	591,00
-18361,63	624,00
-18316,50	656,00
-18271,50	642,00
-18226,63	648,00
-18181,90	680,00
-18137,30	677,00
-18092,84	577,00
-18048,50	699,00
-18004,29	595,00
-17960,22	531,00
-17916,27	575,00
-17872,45	621,00
-17828,76	732,00
-17785,20	627,00
-17741,77	663,00
-17698,46	633,00
-17655,28	596,00
-17612,22	636,00
-17569,29	612,00
-17526,48	778,00
-17483,79	695,00
-17441,23	534,00
-17398,79	631,00
-17356,48	599,00
-17314,28	753,00
-17272,21	660,00
-17230,26	633,00
-17188,42	627,00
-17146,71	670,00
-17105,12	640,00
-17063,64	703,00
-17022,28	572,00
-16981,04	599,00
-16939,92	654,00
-16898,91	733,00
-16858,02	601,00
-16817,25	524,00
-16776,59	637,00
-16736,04	634,00
-16695,61	644,00
-16655,29	571,00
-16615,09	576,00
-16574,99	615,00
-16535,01	597,00
-16495,15	634,00
-16455,39	650,00
-16415,74	568,00
-16376,21	618,00
-16336,78	619,00
-16297,46	577,00
-16258,26	550,00
-16219,16	615,00
-16180,17	597,00
-16141,28	691,00
-16102,51	660,00
-16063,84	595,00
-16025,27	606,00
-15986,82	573,00
-15948,46	699,00
-15910,22	714,00
-15872,07	635,00
-15834,04	643,00
-15796,10	566,00
-15758,27	774,00
-15720,54	618,00
-15682,91	622,00
-15645,39	761,00
-15607,97	656,00
-15570,64	557,00
-15533,42	655,00
-15496,30	657,00
-15459,28	622,00
-15422,36	683,00
-15385,54	608,00
-15348,82	620,00
-15312,19	749,00
-15275,66	568,00
-15239,23	653,00
-15202,90	548,00
-15166,67	606,00
-15130,53	689,00
-15094,48	647,00
-15058,54	589,00
-15022,68	579,00
-14986,93	588,00
-14951,26	666,00
-14915,69	764,00
-14880,22	539,00
-14844,84	683,00
-14809,55	643,00
-14774,35	683,00
-14739,25	554,00
-14704,24	643,00
-14669,32	622,00
-14634,49	626,00
-14599,75	642,00
-14565,10	586,00
-14530,55	712,00
-14496,08	633,00
-14461,70	682,00
-14427,41	613,00
-14393,21	590,00
-14359,10	528,00
-14325,07	621,00
-14291,14	691,00
-14257,29	622,00
-14223,52	635,00
-14189,85	808,00
-14156,26	626,00
-14122,76	561,00
-14089,34	575,00
-14056,01	623,00
-14022,76	600,00
-13989,60	660,00
-13956,52	644,00
-13923,53	565,00
-13890,62	611,00
-13857,79	670,00
-13825,05	647,00
-13792,39	508,00
-13759,81	681,00
-13727,31	611,00
-13694,90	699,00
-13662,57	693,00
-13630,31	641,00
-13598,14	648,00
-13566,05	590,00
-13534,05	601,00
-13502,12	649,00
-13470,27	643,00
-13438,50	638,00
-13406,80	604,00
-13375,19	612,00
-13343,66	675,00
-13312,20	698,00
-13280,83	559,00
-13249,53	702,00
-13218,30	510,00
-13187,16	577,00
-13156,09	781,00
-13125,10	723,00
-13094,18	634,00
-13063,34	596,00
-13032,58	584,00
-13001,89	628,00
-12971,28	623,00
-12940,74	638,00
-12910,27	644,00
-12879,88	646,00
-12849,57	668,00
-12819,33	647,00
-12789,16	687,00
-12759,06	611,00
-12729,04	592,00
-12699,09	1640,00
-12669,21	608,00
-12639,41	654,00
-12609,68	624,00
-12580,02	668,00
-12550,43	688,00
-12520,91	592,00
-12491,46	636,00
-12462,08	506,00
-12432,77	602,00
-12403,54	564,00
-12374,37	572,00
-12345,27	738,00
-12316,24	632,00
-12287,29	702,00
-12258,40	595,00
-12229,57	716,00
-12200,82	647,00
-12172,14	618,00
-12143,52	429,00
-12114,97	591,00
-12086,49	620,00
-12058,07	660,00
-12029,73	543,00
-12001,44	707,00
-11973,23	616,00
-11945,08	685,00
-11917,00	611,00
-11888,98	621,00
-11861,03	767,00
-11833,15	658,00
-11805,32	702,00
-11777,57	596,00
-11749,88	675,00
-11722,25	609,00
-11694,69	555,00
-11667,19	635,00
-11639,75	747,00
-11612,38	484,00
-11585,07	619,00
-11557,83	645,00
-11530,65	740,00
-11503,53	612,00
-11476,47	607,00
-11449,48	583,00
-11422,54	771,00
-11395,67	660,00
-11368,86	729,00
-11342,11	585,00
-11315,43	652,00
-11288,80	638,00
-11262,23	659,00
-11235,73	663,00
-11209,28	803,00
-11182,90	642,00
-11156,57	629,00
-11130,31	736,00
-11104,10	584,00
-11077,96	577,00
-11051,87	571,00
-11025,84	530,00
-10999,87	625,00
-10973,96	626,00
-10948,11	568,00
-10922,31	610,00
-10896,58	627,00
-10870,90	749,00
-10845,28	701,00
-10819,71	542,00
-10794,20	708,00
-10768,75	610,00
-10743,36	695,00
-10718,02	597,00
-10692,74	572,00
-10667,52	554,00
-10642,35	615,00
-10617,24	653,00
-10592,18	615,00
-10567,18	601,00
-10542,23	696,00
-10517,34	665,00
-10492,51	702,00
-10467,72	557,00
-10443,00	655,00
-10418,32	692,00
-10393,70	702,00
-10369,14	643,00
-10344,63	601,00
-10320,17	650,00
-10295,77	623,00
-10271,42	620,00
-10247,12	703,00
-10222,88	739,00
-10198,68	584,00
-10174,54	654,00
-10150,46	701,00
-10126,42	686,00
-10102,44	637,00
-10078,51	613,00
-10054,63	685,00
-10030,80	729,00
-10007,03	795,00
-9983,30	763,00
-9959,63	675,00
-9936,01	726,00
-9912,44	751,00
-9888,92	756,00
-9865,44	689,00
-9842,02	633,00
-9818,65	730,00
-9795,33	535,00
-9772,06	724,00
-9748,84	617,00
-9725,67	687,00
-9702,55	672,00
-9679,47	721,00
-9656,45	808,00
-9633,47	611,00
-9610,55	646,00
-9587,67	746,00
-9564,84	959,00
-9542,06	824,00
-9519,32	917,00
-9496,64	950,00
-9474,00	829,00
-9451,41	788,00
-9428,87	840,00
-9406,37	814,00
-9383,92	776,00
-9361,52	789,00
-9339,17	927,00
-9316,86	778,00
-9294,60	934,00
-9272,38	1011,00
-9250,21	1146,00
-9228,09	1026,00
-9206,01	1084,00
-9183,98	1079,00
-9162,00	833,00
-9140,06	1112,00
-9118,16	872,00
-9096,31	799,00
-9074,51	977,00
-9052,75	1055,00
-9031,04	1057,00
-9009,37	918,00
-8987,74	976,00
-8966,16	948,00
-8944,63	857,00
-8923,14	843,00
-8901,69	767,00
-8880,29	668,00
-8858,93	955,00
-8837,61	950,00
-8816,34	964,00
-8795,11	983,00
-8773,92	763,00
-8752,78	894,00
-8731,68	823,00
-8710,62	1066,00
-8689,61	794,00
-8668,63	862,00
-8647,70	987,00
-8626,82	976,00
-8605,97	989,00
-8585,17	935,00
-8564,41	948,00
-8543,69	1023,00
-8523,01	723,00
-8502,37	940,00
-8481,78	812,00
-8461,23	715,00
-8440,71	903,00
-8420,24	804,00
-8399,81	1014,00
-8379,42	915,00
-8359,08	943,00
-8338,77	820,00
-8318,50	721,00
-8298,27	704,00
-8278,09	882,00
-8257,94	801,00
-8237,83	904,00
-8217,76	893,00
-8197,74	900,00
-8177,75	913,00
-8157,80	745,00
-8137,89	838,00
-8118,02	753,00
-8098,19	863,00
-8078,40	810,00
-8058,65	804,00
-8038,93	870,00
-8019,26	755,00
-7999,62	901,00
-7980,02	730,00
-7960,46	718,00
-7940,94	683,00
-7921,46	748,00
-7902,01	694,00
-7882,60	899,00
-7863,23	782,00
-7843,90	777,00
-7824,61	820,00
-7805,35	943,00
-7786,13	782,00
-7766,95	836,00
-7747,80	856,00
-7728,69	814,00
-7709,62	837,00
-7690,59	782,00
-7671,59	938,00
-7652,63	734,00
-7633,70	732,00
-7614,81	893,00
-7595,96	756,00
-7577,15	806,00
-7558,37	694,00
-7539,62	772,00
-7520,91	741,00
-7502,24	755,00
-7483,60	777,00
-7465,00	707,00
-7446,44	821,00
-7427,91	632,00
-7409,41	654,00
-7390,95	723,00
-7372,53	642,00
-7354,14	667,00
-7335,78	669,00
-7317,46	738,00
-7299,18	680,00
-7280,92	744,00
-7262,71	815,00
-7244,52	684,00
-7226,38	763,00
-7208,26	679,00
-7190,18	739,00
-7172,14	665,00
-7154,12	775,00
-7136,15	695,00
-7118,20	764,00
-7100,29	843,00
-7082,41	786,00
-7064,57	630,00
-7046,76	752,00
-7028,98	542,00
-7011,24	679,00
-6993,53	616,00
-6975,85	675,00
-6958,20	684,00
-6940,59	625,00
-6923,01	490,00
-6905,46	725,00
-6887,94	583,00
-6870,46	956,00
-6853,01	742,00
-6835,59	562,00
-6818,21	562,00
-6800,85	707,00
-6783,53	712,00
-6766,24	451,00
-6748,98	645,00
-6731,76	604,00
-6714,56	563,00
-6697,40	516,00
-6680,26	498,00
-6663,16	645,00
-6646,09	642,00
-6629,05	735,00
-6612,05	632,00
-6595,07	559,00
-6578,13	641,00
-6561,21	590,00
-6544,33	632,00
-6527,47	497,00
-6510,65	603,00
-6493,86	384,00
-6477,10	555,00
-6460,36	747,00
-6443,66	469,00
-6426,99	549,00
-6410,35	654,00
-6393,74	669,00
-6377,16	462,00
-6360,61	611,00
-6344,09	410,00
-6327,59	503,00
-6311,13	618,00
-6294,70	594,00
-6278,29	576,00
-6261,92	582,00
-6245,58	641,00
-6229,26	696,00
-6212,97	640,00
-6196,72	574,00
-6180,49	633,00
-6164,29	447,00
-6148,12	683,00
-6131,98	644,00
-6115,86	645,00
-6099,78	571,00
-6083,72	470,00
-6067,69	519,00
-6051,69	534,00
-6035,72	648,00
-6019,78	541,00
-6003,87	675,00
-5987,98	502,00
-5972,12	679,00
-5956,29	537,00
-5940,49	423,00
-5924,71	734,00
-5908,96	594,00
-5893,24	591,00
-5877,55	560,00
-5861,89	556,00
-5846,25	426,00
-5830,64	558,00
-5815,05	482,00
-5799,50	588,00
-5783,97	615,00
-5768,47	596,00
-5752,99	641,00
-5737,55	492,00
-5722,12	581,00
-5706,73	548,00
-5691,36	652,00
-5676,02	540,00
-5660,71	517,00
-5645,42	571,00
-5630,16	586,00
-5614,92	715,00
-5599,71	522,00
-5584,53	606,00
-5569,37	446,00
-5554,24	1456,00
-5539,14	528,00
-5524,06	630,00
-5509,01	550,00
-5493,98	585,00
-5478,98	484,00
-5464,00	444,00
-5449,05	552,00
-5434,13	602,00
-5419,23	554,00
-5404,36	492,00
-5389,51	617,00
-5374,69	465,00
-5359,89	681,00
-5345,12	602,00
-5330,37	680,00
-5315,65	618,00
-5300,95	555,00
-5286,28	600,00
-5271,63	528,00
-5257,01	504,00
-5242,41	607,00
-5227,84	539,00
-5213,29	536,00
-5198,76	568,00
-5184,26	633,00
-5169,79	488,00
-5155,33	535,00
-5140,91	569,00
-5126,51	552,00
-5112,13	599,00
-5097,77	624,00
-5083,44	737,00
-5069,13	484,00
-5054,85	596,00
-5040,59	671,00
-5026,36	561,00
-5012,15	659,00
-4997,96	649,00
-4983,80	519,00
-4969,66	524,00
-4955,54	549,00
-4941,44	605,00
-4927,37	504,00
-4913,33	622,00
-4899,30	449,00
-4885,30	649,00
-4871,33	555,00
-4857,37	584,00
-4843,44	550,00
-4829,53	683,00
-4815,65	661,00
-4801,79	441,00
-4787,95	652,00
-4774,13	577,00
-4760,34	516,00
-4746,56	679,00
-4732,82	562,00
-4719,09	608,00
-4705,38	678,00
-4691,70	625,00
-4678,04	705,00
-4664,41	687,00
-4650,79	852,00
-4637,20	628,00
-4623,63	567,00
-4610,08	690,00
-4596,56	562,00
-4583,05	538,00
-4569,57	474,00
-4556,11	648,00
-4542,67	620,00
-4529,25	548,00
-4515,86	634,00
-4502,49	562,00
-4489,13	613,00
-4475,80	758,00
-4462,49	545,00
-4449,21	697,00
-4435,94	649,00
-4422,70	566,00
-4409,47	574,00
-4396,27	600,00
-4383,09	474,00
-4369,93	667,00
-4356,79	603,00
-4343,67	644,00
-4330,58	704,00
-4317,50	637,00
-4304,45	624,00
-4291,41	705,00
-4278,40	628,00
-4265,41	538,00
-4252,44	640,00
-4239,49	472,00
-4226,55	578,00
-4213,65	608,00
-4200,76	632,00
-4187,89	629,00
-4175,04	568,00
-4162,21	560,00
-4149,40	713,00
-4136,61	647,00
-4123,85	579,00
-4111,10	665,00
-4098,37	696,00
-4085,66	587,00
-4072,98	610,00
-4060,31	700,00
-4047,66	739,00
-4035,04	695,00
-4022,43	562,00
-4009,84	659,00
-3997,27	550,00
-3984,72	638,00
-3972,19	684,00
-3959,69	663,00
-3947,20	610,00
-3934,73	610,00
-3922,27	512,00
-3909,84	587,00
-3897,43	595,00
-3885,04	679,00
-3872,67	663,00
-3860,31	619,00
-3847,98	629,00
-3835,66	687,00
-3823,36	686,00
-3811,09	639,00
-3798,83	656,00
-3786,59	620,00
-3774,37	737,00
-3762,17	613,00
-3749,98	645,00
-3737,82	653,00
-3725,67	765,00
-3713,55	578,00
-3701,44	699,00
-3689,35	642,00
-3677,28	723,00
-3665,22	649,00
-3653,19	560,00
-3641,17	588,00
-3629,18	680,00
-3617,20	680,00
-3605,24	628,00
-3593,30	735,00
-3581,37	759,00
-3569,47	761,00
-3557,58	633,00
-3545,71	699,00
-3533,86	698,00
-3522,02	613,00
-3510,21	656,00
-3498,41	615,00
-3486,63	666,00
-3474,87	633,00
-3463,12	544,00
-3451,40	680,00
-3439,69	643,00
-3428,00	614,00
-3416,33	616,00
-3404,67	568,00
-3393,03	625,00
-3381,41	744,00
-3369,81	714,00
-3358,22	696,00
-3346,66	795,00
-3335,10	741,00
-3323,57	581,00
-3312,06	702,00
-3300,56	705,00
-3289,08	587,00
-3277,61	625,00
-3266,16	613,00
-3254,73	578,00
-3243,32	608,00
-3231,92	590,00
-3220,55	747,00
-3209,18	828,00
-3197,84	639,00
-3186,51	567,00
-3175,20	593,00
-3163,90	596,00
-3152,63	748,00
-3141,36	601,00
-3130,12	664,00
-3118,89	729,00
-3107,68	581,00
-3096,49	699,00
-3085,31	632,00
-3074,15	646,00
-3063,00	719,00
-3051,87	680,00
-3040,76	651,00
-3029,67	782,00
-3018,59	853,00
-3007,52	741,00
-2996,48	633,00
-2985,44	710,00
-2974,43	678,00
-2963,43	546,00
-2952,45	672,00
-2941,48	658,00
-2930,53	690,00
-2919,60	561,00
-2908,68	612,00
-2897,78	618,00
-2886,89	740,00
-2876,02	662,00
-2865,17	596,00
-2854,33	661,00
-2843,50	639,00
-2832,70	674,00
-2821,90	631,00
-2811,13	709,00
-2800,37	687,00
-2789,62	503,00
-2778,89	715,00
-2768,18	665,00
-2757,48	691,00
-2746,80	699,00
-2736,13	597,00
-2725,48	750,00
-2714,84	548,00
-2704,22	658,00
-2693,61	665,00
-2683,02	607,00
-2672,45	691,00
-2661,89	680,00
-2651,34	666,00
-2640,81	722,00
-2630,30	709,00
-2619,80	592,00
-2609,31	703,00
-2598,84	635,00
-2588,39	586,00
-2577,95	588,00
-2567,52	596,00
-2557,11	575,00
-2546,71	630,00
-2536,33	730,00
-2525,97	671,00
-2515,62	692,00
-2505,28	647,00
-2494,96	643,00
-2484,65	727,00
-2474,36	883,00
-2464,08	576,00
-2453,82	738,00
-2443,57	614,00
-2433,33	545,00
-2423,11	719,00
-2412,91	658,00
-2402,72	619,00
-2392,54	732,00
-2382,38	681,00
-2372,23	723,00
-2362,09	1357,00
-2351,97	649,00
-2341,87	559,00
-2331,78	644,00
-2321,70	712,00
-2311,64	657,00
-2301,59	621,00
-2291,55	591,00
-2281,53	692,00
-2271,53	576,00
-2261,53	776,00
-2251,55	678,00
-2241,59	660,00
-2231,64	689,00
-2221,70	650,00
-2211,78	598,00
-2201,87	647,00
-2191,97	634,00
-2182,09	591,00
-2172,22	671,00
-2162,37	586,00
-2152,53	625,00
-2142,70	574,00
-2132,89	631,00
-2123,09	667,00
-2113,30	649,00
-2103,53	608,00
-2093,77	718,00
-2084,02	604,00
-2074,29	684,00
-2064,57	672,00
-2054,86	690,00
-2045,17	782,00
-2035,49	616,00
-2025,82	564,00
-2016,17	679,00
-2006,53	581,00
-1996,91	678,00
-1987,29	550,00
-1977,69	611,00
-1968,11	580,00
-1958,53	579,00
-1948,97	578,00
-1939,42	637,00
-1929,89	670,00
-1920,37	672,00
-1910,86	616,00
-1901,36	668,00
-1891,88	716,00
-1882,41	654,00
-1872,95	686,00
-1863,51	700,00
-1854,08	630,00
-1844,66	737,00
-1835,26	715,00
-1825,86	715,00
-1816,48	592,00
-1807,11	676,00
-1797,76	644,00
-1788,42	696,00
-1779,09	713,00
-1769,77	542,00
-1760,47	710,00
-1751,17	675,00
-1741,89	639,00
-1732,63	679,00
-1723,37	790,00
-1714,13	799,00
-1704,90	590,00
-1695,68	800,00
-1686,48	572,00
-1677,29	622,00
-1668,11	775,00
-1658,94	635,00
-1649,78	641,00
-1640,64	628,00
-1631,51	676,00
-1622,39	790,00
-1613,28	661,00
-1604,19	728,00
-1595,10	749,00
-1586,03	568,00
-1576,97	687,00
-1567,93	680,00
-1558,89	742,00
-1549,87	783,00
-1540,86	720,00
-1531,86	618,00
-1522,87	637,00
-1513,90	677,00
-1504,93	734,00
-1495,98	767,00
-1487,04	730,00
-1478,12	570,00
-1469,20	658,00
-1460,30	693,00
-1451,40	777,00
-1442,52	736,00
-1433,65	790,00
-1424,80	616,00
-1415,95	551,00
-1407,12	778,00
-1398,30	625,00
-1389,48	727,00
-1380,69	624,00
-1371,90	572,00
-1363,12	689,00
-1354,36	840,00
-1345,60	606,00
-1336,86	652,00
-1328,13	762,00
-1319,41	703,00
-1310,70	644,00
-1302,01	648,00
-1293,32	560,00
-1284,65	647,00
-1275,99	741,00
-1267,33	780,00
-1258,69	652,00
-1250,06	693,00
-1241,45	660,00
-1232,84	822,00
-1224,25	692,00
-1215,66	676,00
-1207,09	662,00
-1198,53	665,00
-1189,97	662,00
-1181,43	626,00
-1172,91	604,00
-1164,39	740,00
-1155,88	543,00
-1147,38	559,00
-1138,90	613,00
-1130,43	635,00
-1121,96	670,00
-1113,51	633,00
-1105,07	628,00
-1096,64	669,00
-1088,22	752,00
-1079,81	711,00
-1071,41	688,00
-1063,02	669,00
-1054,65	793,00
-1046,28	679,00
-1037,92	758,00
-1029,58	671,00
-1021,24	735,00
-1012,92	909,00
-1004,61	668,00
-996,30	771,00
-988,01	614,00
-979,73	686,00
-971,46	720,00
-963,20	562,00
-954,95	579,00
-946,71	682,00
-938,48	699,00
-930,26	723,00
-922,06	700,00
-913,86	664,00
-905,67	610,00
-897,49	713,00
-889,33	555,00
-881,17	746,00
-873,02	691,00
-864,89	544,00
-856,76	663,00
-848,65	690,00
-840,54	759,00
-832,45	669,00
-824,36	638,00
-816,29	708,00
-808,22	687,00
-800,17	728,00
-792,12	658,00
-784,09	735,00
-776,06	581,00
-768,05	698,00
-760,04	693,00
-752,05	618,00
-744,07	684,00
-736,09	693,00
-728,13	571,00
-720,17	656,00
-712,23	682,00
-704,29	593,00
-696,37	641,00
-688,45	722,00
-680,55	648,00
-672,65	677,00
-664,77	627,00
-656,89	658,00
-649,03	600,00
-641,17	706,00
-633,32	614,00
-625,49	678,00
-617,66	664,00
-609,84	689,00
-602,03	576,00
-594,23	736,00
-586,45	704,00
-578,67	686,00
-570,90	684,00
-563,14	576,00
-555,39	612,00
-547,65	652,00
-539,91	674,00
-532,19	705,00
-524,48	680,00
-516,78	582,00
-509,08	712,00
-501,40	658,00
-493,72	665,00
-486,06	557,00
-478,40	718,00
-470,76	538,00
-463,12	542,00
-455,49	658,00
-447,87	656,00
-440,26	671,00
-432,66	608,00
-425,07	681,00
-417,49	737,00
-409,92	535,00
-402,35	662,00
-394,80	585,00
-387,25	771,00
-379,72	706,00
-372,19	723,00
-364,67	759,00
-357,17	546,00
-349,67	639,00
-342,18	651,00
-334,69	665,00
-327,22	702,00
-319,76	665,00
-312,30	653,00
-304,86	679,00
-297,42	716,00
-290,00	588,00
-282,58	641,00
-275,17	720,00
-267,77	785,00
-260,37	714,00
-252,99	803,00
-245,62	656,00
-238,25	709,00
-230,90	664,00
-223,55	733,00
-216,21	668,00
-208,88	922,00
-201,56	700,00
-194,25	735,00
-186,94	803,00
-179,65	773,00
-172,36	840,00
-165,08	885,00
-157,81	910,00
-150,55	945,00
-143,30	940,00
-136,06	934,00
-128,82	1004,00
-121,60	1044,00
-114,38	1129,00
-107,17	1198,00
-99,97	1349,00
-92,78	1324,00
-85,60	1444,00
-78,42	1551,00
-71,25	1715,00
-64,10	1821,00
-56,95	2075,00
-49,81	2382,00
-42,67	2766,00
-35,55	3328,00
-28,43	4310,00
-21,33	6677,00
-14,23	20332,00
-7,14	57498,00
-0,05	57284,00
7,02	57012,00
14,09	57319,00
21,14	17556,00
28,19	7707,00
35,23	5185,00
42,27	4269,00
49,29	3448,00
56,31	2966,00
63,32	2744,00
70,32	2328,00
77,31	2172,00
84,29	1855,00
91,27	1727,00
98,23	1612,00
105,19	1570,00
112,14	1909,00
119,09	2705,00
126,02	4300,00
132,95	5147,00
139,87	5544,00
146,78	5623,00
153,68	5597,00
160,58	5588,00
167,46	5529,00
174,34	5591,00
181,21	5608,00
188,08	5461,00
194,93	5463,00
201,78	5501,00
208,62	5558,00
215,45	5673,00
222,27	5689,00
229,09	5705,00
235,90	5526,00
242,70	5511,00
249,49	5612,00
256,27	5481,00
263,05	5492,00
269,82	5456,00
276,58	5548,00
283,33	5375,00
290,08	5553,00
296,82	5463,00
303,55	5254,00
310,27	5257,00
316,98	5301,00
323,69	5357,00
330,39	5360,00
337,08	5205,00
343,76	5238,00
350,44	5345,00
357,11	5226,00
363,77	5185,00
370,42	5267,00
377,07	5223,00
383,71	5311,00
390,34	5229,00
396,96	5171,00
403,58	5278,00
410,19	5358,00
416,79	5386,00
423,38	5435,00
429,97	5235,00
436,55	5069,00
443,12	5149,00
449,68	5124,00
456,24	5075,00
462,79	5073,00
469,33	4883,00
475,86	4983,00
482,39	4965,00
488,91	4926,00
495,42	5029,00
501,93	4965,00
508,42	4794,00
514,91	4850,00
521,40	4833,00
527,87	4797,00
534,34	4696,00
540,80	4659,00
547,25	4875,00
553,70	4712,00
560,14	4771,00
566,57	4759,00
573,00	4653,00
579,41	4782,00
585,83	4858,00
592,23	4656,00
598,62	4674,00
605,01	4717,00
611,40	4770,00
617,77	4717,00
624,14	4668,00
630,50	4593,00
636,85	4650,00
643,20	4600,00
649,54	4544,00
655,87	4555,00
662,20	4552,00
668,52	4620,00
674,83	4515,00
681,13	4469,00
687,43	4544,00
693,72	4362,00
700,00	4362,00
706,28	4344,00
712,55	4453,00
718,81	4377,00
725,07	4348,00
731,32	4471,00
737,56	4383,00
743,79	4320,00
750,02	4348,00
756,24	4320,00
762,46	4361,00
768,67	4520,00
774,87	4378,00
781,06	4209,00
787,25	4312,00
793,43	4358,00
799,60	4294,00
805,77	4414,00
811,93	4362,00
818,08	4260,00
824,23	4245,00
830,37	4364,00
836,50	4194,00
842,63	4171,00
848,75	4270,00
854,87	4102,00
860,97	4235,00
867,07	4106,00
873,17	4145,00
879,25	4071,00
885,33	4123,00
891,41	4151,00
897,47	4204,00
903,53	4091,00
909,59	4224,00
915,63	3989,00
921,67	4148,00
927,71	4042,00
933,74	4033,00
939,76	3933,00
945,77	3943,00
951,78	4070,00
957,78	3957,00
963,78	4058,00
969,77	3985,00
975,75	3931,00
981,72	3968,00
987,69	4874,00
993,66	4043,00
999,61	3951,00
1005,56	3977,00
1011,51	3886,00
1017,44	3939,00
1023,37	3994,00
1029,30	3878,00
1035,22	3967,00
1041,13	3882,00
1047,03	4030,00
1052,93	3993,00
1058,83	4177,00
1064,71	4263,00
1070,59	4128,00
1076,47	3939,00
1082,33	3985,00
1088,20	3988,00
1094,05	3923,00
1099,90	3588,00
1105,74	3918,00
1111,58	3855,00
1117,41	3905,00
1123,23	3917,00
1129,05	4068,00
1134,86	4029,00
1140,67	3889,00
1146,47	3799,00
1152,26	3928,00
1158,05	3791,00
1163,83	3804,00
1169,60	3905,00
1175,37	3848,00
1181,13	3848,00
1186,89	3787,00
1192,64	3748,00
1198,38	3896,00
1204,12	3731,00
1209,85	3785,00
1215,58	3697,00
1221,30	3840,00
1227,02	3793,00
1232,72	3699,00
1238,43	3765,00
1244,12	3698,00
1249,81	3778,00
1255,50	3938,00
1261,17	3813,00
1266,85	3714,00
1272,51	3769,00
1278,17	3893,00
1283,83	3789,00
1289,47	4055,00
1295,12	4290,00
1300,75	4108,00
1306,38	4096,00
1312,01	3908,00
1317,63	3733,00
1323,24	3805,00
1328,85	3813,00
1334,45	3819,00
1340,04	3805,00
1345,63	3800,00
1351,22	3972,00
1356,80	3861,00
1362,37	3932,00
1367,93	3912,00
1373,49	3883,00
1379,05	3876,00
1384,60	3839,00
1390,14	3860,00
1395,68	3942,00
1401,21	3904,00
1406,74	3892,00
1412,26	3967,00
1417,77	4195,00
1423,28	3873,00
1428,78	4009,00
1434,28	4339,00
1439,77	4229,00
1445,26	4341,00
1450,74	4331,00
1456,22	4174,00
1461,68	4160,00
1467,15	4123,00
1472,61	3902,00
1478,06	3959,00
1483,51	3846,00
1488,95	3660,00
1494,38	3786,00
1499,81	3613,00
1505,24	3653,00
1510,65	3740,00
1516,07	3629,00
1521,48	3612,00
1526,88	3496,00
1532,27	3548,00
1537,67	3525,00
1543,05	3486,00
1548,43	3465,00
1553,81	3575,00
1559,18	3492,00
1564,54	3433,00
1569,90	3388,00
1575,25	3460,00
1580,60	3345,00
1585,94	3451,00
1591,28	3476,00
1596,61	3412,00
1601,93	3458,00
1607,25	3493,00
1612,57	3401,00
1617,88	3315,00
1623,18	3364,00
1628,48	3289,00
1633,77	3385,00
1639,06	3330,00
1644,34	3312,00
1649,62	3313,00
1654,89	3260,00
1660,16	3164,00
1665,42	3351,00
1670,67	3256,00
1675,92	3112,00
1681,17	3182,00
1686,41	3208,00
1691,64	3231,00
1696,87	3292,00
1702,10	3109,00
1707,32	3173,00
1712,53	3145,00
1717,74	3075,00
1722,94	3238,00
1728,14	3108,00
1733,33	3030,00
1738,52	3047,00
1743,70	3060,00
1748,88	2963,00
1754,05	3119,00
1759,22	2878,00
1764,38	2251,00
1769,53	2982,00
1774,69	3010,00
1779,83	2801,00
1784,97	2915,00
1790,11	2776,00
1795,24	2874,00
1800,36	2911,00
1805,48	2844,00
1810,60	2848,00
1815,71	2783,00
1820,82	2821,00
1825,92	2891,00
1831,01	2792,00
1836,10	2835,00
1841,19	2876,00
1846,26	2717,00
1851,34	2880,00
1856,41	2907,00
1861,47	2714,00
1866,53	2910,00
1871,59	2687,00
1876,64	2759,00
1881,68	2611,00
1886,72	2806,00
1891,76	2659,00
1896,79	2629,00
1901,81	2589,00
1906,83	2663,00
1911,85	2623,00
1916,86	2627,00
1921,86	2512,00
1926,86	2467,00
1931,86	2677,00
1936,85	2473,00
1941,83	2481,00
1946,81	2469,00
1951,79	2390,00
1956,76	2418,00
1961,72	2354,00
1966,68	2409,00
1971,64	2418,00
1976,59	2533,00
1981,54	2402,00
1986,48	2558,00
1991,42	2302,00
1996,35	2544,00
2001,27	2390,00
2006,20	2413,00
2011,11	2362,00
2016,03	2310,00
2020,93	2283,00
2025,84	2369,00
2030,73	2293,00
2035,63	2233,00
2040,52	2331,00
2045,40	2330,00
2050,28	2244,00
2055,15	2325,00
2060,02	2228,00
2064,89	2376,00
2069,75	2196,00
2074,60	2220,00
2079,46	2093,00
2084,30	2228,00
2089,14	2077,00
2093,98	2284,00
2098,81	2191,00
2103,64	2116,00
2108,46	2194,00
2113,28	2224,00
2118,09	2225,00
2122,90	2177,00
2127,70	2115,00
2132,50	2168,00
2137,30	2208,00
2142,09	2096,00
2146,87	2073,00
2151,66	2075,00
2156,43	2127,00
2161,20	2152,00
2165,97	2129,00
2170,73	1992,00
2175,49	2127,00
2180,24	2130,00
2184,99	2178,00
2189,74	2218,00
2194,48	2085,00
2199,21	2113,00
2203,94	1994,00
2208,67	1952,00
2213,39	1943,00
2218,11	2006,00
2222,82	1911,00
2227,53	2032,00
2232,23	2010,00
2236,93	1974,00
2241,63	1914,00
2246,32	2086,00
2251,00	1934,00
2255,68	1982,00
2260,36	1906,00
2265,03	2009,00
2269,70	2066,00
2274,36	1911,00
2279,02	1920,00
2283,68	1945,00
2288,33	1839,00
2292,97	1958,00
2297,61	1807,00
2302,25	1909,00
2306,88	1863,00
2311,51	1859,00
2316,14	1802,00
2320,75	1776,00
2325,37	1762,00
2329,98	1866,00
2334,59	1813,00
2339,19	1733,00
2343,79	1687,00
2348,38	1757,00
2352,97	1644,00
2357,55	1840,00
2362,13	1649,00
2366,71	1605,00
2371,28	1780,00
2375,85	1656,00
2380,41	1714,00
2384,97	1694,00
2389,52	1694,00
2394,07	1843,00
2398,62	1638,00
2403,16	1737,00
2407,70	1651,00
2412,23	1616,00
2416,76	1696,00
2421,29	1787,00
2425,81	1708,00
2430,32	1678,00
2434,84	1619,00
2439,34	1546,00
2443,85	1704,00
2448,35	1601,00
2452,84	1602,00
2457,33	1644,00
2461,82	1489,00
2466,30	1518,00
2470,78	1588,00
2475,25	1513,00
2479,72	1507,00
2484,19	1604,00
2488,65	1563,00
2493,11	1553,00
2497,56	1640,00
2502,01	1454,00
2506,46	1546,00
2510,90	1436,00
2515,34	1365,00
2519,77	1519,00
2524,20	1429,00
2528,62	1545,00
2533,04	1530,00
2537,46	1439,00
2541,87	1488,00
2546,28	1477,00
2550,68	1535,00
2555,08	1494,00
2559,48	1429,00
2563,87	1338,00
2568,26	1422,00
2572,64	1458,00
2577,02	1359,00
2581,40	1318,00
2585,77	1414,00
2590,14	1315,00
2594,50	1280,00
2598,86	1333,00
2603,22	1379,00
2607,57	1285,00
2611,92	1297,00
2616,26	1449,00
2620,60	1404,00
2624,94	1262,00
2629,27	1352,00
2633,60	1220,00
2637,92	1353,00
2642,24	1275,00
2646,56	1317,00
2650,87	1194,00
2655,18	1340,00
2659,48	1196,00
2663,78	1176,00
2668,08	1250,00
2672,37	1384,00
2676,66	1297,00
2680,95	1193,00
2685,23	1320,00
2689,50	1304,00
2693,78	1230,00
2698,05	1300,00
2702,31	1260,00
2706,57	1408,00
2710,83	1409,00
2715,08	1477,00
2719,33	1387,00
2723,58	1376,00
2727,82	1379,00
2732,06	1255,00
2736,29	1273,00
2740,53	1277,00
2744,75	1244,00
2748,97	1230,00
2753,19	1255,00
2757,41	1304,00
2761,62	1253,00
2765,83	1198,00
2770,03	1239,00
2774,23	1289,00
2778,43	1201,00
2782,62	1241,00
2786,81	1218,00
2791,00	1275,00
2795,18	1244,00
2799,35	1320,00
2803,53	1188,00
2807,70	1199,00
2811,86	1268,00
2816,03	1321,00
2820,19	1223,00
2824,34	1231,00
2828,49	1272,00
2832,64	1318,00
2836,78	1499,00
2840,92	1429,00
2845,06	1638,00
2849,19	1733,00
2853,32	1709,00
2857,45	1626,00
2861,57	1699,00
2865,69	1693,00
2869,80	1509,00
2873,91	1669,00
2878,02	1837,00
2882,12	1766,00
2886,22	1709,00
2890,32	1688,00
2894,41	1612,00
2898,50	1568,00
2902,58	1592,00
2906,67	1504,00
2910,74	1506,00
2914,82	1429,00
2918,89	1537,00
2922,96	1400,00
2927,02	1233,00
2931,08	1306,00
2935,13	1214,00
2939,19	1243,00
2943,24	1188,00
2947,28	1335,00
2951,32	1159,00
2955,36	1089,00
2959,40	1229,00
2963,43	1141,00
2967,46	1024,00
2971,48	1080,00
2975,50	1061,00
2979,52	1157,00
2983,53	1143,00
2987,54	995,00
2991,55	1102,00
2995,55	977,00
2999,55	920,00
3003,54	984,00
3007,54	1083,00
3011,53	959,00
3015,51	982,00
3019,49	909,00
3023,47	920,00
3027,45	1035,00
3031,42	970,00
3035,39	911,00
3039,35	1014,00
3043,31	917,00
3047,27	993,00
3051,22	932,00
3055,17	928,00
3059,12	915,00
3063,06	940,00
3067,00	853,00
3070,94	853,00
3074,87	1056,00
3078,80	931,00
3082,73	910,00
3086,65	914,00
3090,57	969,00
3094,49	842,00
3098,40	953,00
3102,31	852,00
3106,22	934,00
3110,12	884,00
3114,02	857,00
3117,92	818,00
3121,81	928,00
3125,70	921,00
3129,58	854,00
3133,47	808,00
3137,34	922,00
3141,22	935,00
3145,09	848,00
3148,96	844,00
3152,83	860,00
3156,69	872,00
3160,55	865,00
3164,40	914,00
3168,26	862,00
3172,10	871,00
3175,95	885,00
3179,79	828,00
3183,63	918,00
3187,47	895,00
3191,30	864,00
3195,13	824,00
3198,95	801,00
3202,78	889,00
3206,60	859,00
3210,41	693,00
3214,23	773,00
3218,03	744,00
3221,84	772,00
3225,64	760,00
3229,44	772,00
3233,24	866,00
3237,03	817,00
3240,82	740,00
3244,61	818,00
3248,39	843,00
3252,17	828,00
3255,95	894,00
3259,72	829,00
3263,49	919,00
3267,26	760,00
3271,03	853,00
3274,79	780,00
3278,54	808,00
3282,30	698,00
3286,05	798,00
3289,80	814,00
3293,54	759,00
3297,29	752,00
3301,02	798,00
3304,76	741,00
3308,49	837,00
3312,22	750,00
3315,95	758,00
3319,67	640,00
3323,39	838,00
3327,10	736,00
3330,82	803,00
3334,53	750,00
3338,24	768,00
3341,94	718,00
3345,64	763,00
3349,34	742,00
3353,03	758,00
3356,72	786,00
3360,41	772,00
3364,10	701,00
3367,78	725,00
3371,46	659,00
3375,13	729,00
3378,81	761,00
3382,48	694,00
3386,14	805,00
3389,81	732,00
3393,47	797,00
3397,12	850,00
3400,78	746,00
3404,43	713,00
3408,08	743,00
3411,72	682,00
3415,36	685,00
3419,00	733,00
3422,64	721,00
3426,27	753,00
3429,90	762,00
3433,53	642,00
3437,15	696,00
3440,77	610,00
3444,39	682,00
3448,00	692,00
3451,62	670,00
3455,22	671,00
3458,83	611,00
3462,43	738,00
3466,03	743,00
3469,63	625,00
3473,22	663,00
3476,81	601,00
3480,40	798,00
3483,99	597,00
3487,57	704,00
3491,15	647,00
3494,72	734,00
3498,29	793,00
3501,86	640,00
3505,43	657,00
3508,99	616,00
3512,56	595,00
3516,11	755,00
3519,67	657,00
3523,22	650,00
3526,77	624,00
3530,32	804,00
3533,86	694,00
3537,40	764,00
3540,94	735,00
3544,47	661,00
3548,00	643,00
3551,53	752,00
3555,06	651,00
3558,58	663,00
3562,10	748,00
3565,62	533,00
3569,13	665,00
3572,64	736,00
3576,15	601,00
3579,66	622,00
3583,16	633,00
3586,66	654,00
3590,16	604,00
3593,65	624,00
3597,14	607,00
3600,63	583,00
3604,11	669,00
3607,60	627,00
3611,08	711,00
3614,55	642,00
3618,03	665,00
3621,50	585,00
3624,97	605,00
3628,43	644,00
3631,90	601,00
3635,36	589,00
3638,81	633,00
3642,27	653,00
3645,72	683,00
3649,17	592,00
3652,61	576,00
3656,06	561,00
3659,50	638,00
3662,93	599,00
3666,37	666,00
3669,80	811,00
3673,23	723,00
3676,65	521,00
3680,08	676,00
3683,50	602,00
3686,92	574,00
3690,33	660,00
3693,74	629,00
3697,15	528,00
3700,56	663,00
3703,96	618,00
3707,36	488,00
3710,76	515,00
3714,16	521,00
3717,55	622,00
3720,94	528,00
3724,33	586,00
3727,71	570,00
3731,10	628,00
3734,48	583,00
3737,85	474,00
3741,23	574,00
3744,60	616,00
3747,97	516,00
3751,33	639,00
3754,69	580,00
3758,05	556,00
3761,41	489,00
3764,77	489,00
3768,12	473,00
3771,47	476,00
3774,82	564,00
3778,16	-3,00
3781,50	11,00
3784,84	2,00
3788,18	7,00
>>>>>End Processed Spectral Data<<<<<
