SpectraSuite Data File
++++++++++++++++++++++++++++++++++++
Date: Mon Jan 05 16:28:55 ICT 2026
User: Administrator
Dark Spectrum Present: Yes
Reference Spectrum Present: No
Number of Sampled Component Spectra: 1
Spectrometers: MAYP113682
Integration Time (usec): 3000000 (MAYP113682)
Spectra Averaged: 1 (MAYP113682)
Boxcar Smoothing: 0 (MAYP113682)
Correct for Electrical Dark: No (MAYP113682)
Strobe/Lamp Enabled: No (MAYP113682)
Correct for Detector Non-linearity: No (MAYP113682)
Correct for Stray Light: No (MAYP113682)
Number of Pixels in Processed Spectrum: 2068
>>>>>Begin Processed Spectral Data<<<<<
-37534,58	21,00
-37414,56	7,00
-37295,11	6,00
-37176,24	4,00
-37057,95	431,00
-36940,22	475,00
-36823,05	451,00
-36706,45	563,00
-36590,40	554,00
-36474,90	538,00
-36359,95	528,00
-36245,55	591,00
-36131,68	530,00
-36018,35	544,00
-35905,55	560,00
-35793,29	600,00
-35681,54	541,00
-35570,32	559,00
-35459,62	626,00
-35349,43	627,00
-35239,75	654,00
-35130,58	570,00
-35021,91	560,00
-34913,74	526,00
-34806,07	629,00
-34698,89	621,00
-34592,20	580,00
-34486,00	571,00
-34380,28	623,00
-34275,04	607,00
-34170,27	586,00
-34065,98	697,00
-33962,16	643,00
-33858,81	674,00
-33755,92	598,00
-33653,49	692,00
-33551,52	701,00
-33450,01	684,00
-33348,94	587,00
-33248,33	556,00
-33148,16	654,00
-33048,43	586,00
-32949,14	700,00
-32850,29	662,00
-32751,87	599,00
-32653,89	720,00
-32556,33	664,00
-32459,20	603,00
-32362,49	583,00
-32266,19	644,00
-32170,32	649,00
-32074,86	726,00
-31979,82	707,00
-31885,18	679,00
-31790,95	694,00
-31697,12	699,00
-31603,69	718,00
-31510,67	701,00
-31418,04	677,00
-31325,80	658,00
-31233,95	643,00
-31142,49	607,00
-31051,42	611,00
-30960,73	704,00
-30870,43	712,00
-30780,50	634,00
-30690,95	697,00
-30601,77	762,00
-30512,97	642,00
-30424,53	694,00
-30336,46	615,00
-30248,76	644,00
-30161,42	764,00
-30074,44	589,00
-29987,81	665,00
-29901,55	713,00
-29815,63	605,00
-29730,07	657,00
-29644,86	702,00
-29560,00	686,00
-29475,48	726,00
-29391,30	654,00
-29307,47	699,00
-29223,97	619,00
-29140,81	626,00
-29057,99	728,00
-28975,50	602,00
-28893,34	796,00
-28811,51	590,00
-28730,00	690,00
-28648,82	631,00
-28567,97	753,00
-28487,43	638,00
-28407,21	601,00
-28327,32	608,00
-28247,73	682,00
-28168,46	586,00
-28089,50	723,00
-28010,85	565,00
-27932,51	586,00
-27854,48	660,00
-27776,75	649,00
-27699,32	644,00
-27622,19	652,00
-27545,37	739,00
-27468,84	736,00
-27392,60	688,00
-27316,66	676,00
-27241,01	631,00
-27165,66	692,00
-27090,59	513,00
-27015,81	694,00
-26941,31	681,00
-26867,10	620,00
-26793,17	723,00
-26719,52	600,00
-26646,15	608,00
-26573,06	629,00
-26500,24	640,00
-26427,70	625,00
-26355,43	636,00
-26283,43	605,00
-26211,71	675,00
-26140,25	669,00
-26069,06	798,00
-25998,13	483,00
-25927,46	572,00
-25857,06	652,00
-25786,92	637,00
-25717,04	589,00
-25647,42	688,00
-25578,05	575,00
-25508,94	589,00
-25440,09	696,00
-25371,48	705,00
-25303,13	775,00
-25235,02	613,00
-25167,17	680,00
-25099,56	669,00
-25032,19	581,00
-24965,07	511,00
-24898,20	606,00
-24831,56	568,00
-24765,17	655,00
-24699,01	607,00
-24633,10	639,00
-24567,41	608,00
-24501,97	617,00
-24436,75	635,00
-24371,77	594,00
-24307,03	566,00
-24242,51	664,00
-24178,22	633,00
-24114,16	567,00
-24050,32	687,00
-23986,71	629,00
-23923,32	617,00
-23860,16	673,00
-23797,22	682,00
-23734,50	687,00
-23672,00	605,00
-23609,71	597,00
-23547,65	567,00
-23485,80	662,00
-23424,16	512,00
-23362,74	755,00
-23301,53	611,00
-23240,54	491,00
-23179,75	496,00
-23119,17	624,00
-23058,80	587,00
-22998,64	663,00
-22938,68	565,00
-22878,93	678,00
-22819,39	478,00
-22760,04	641,00
-22700,90	636,00
-22641,96	557,00
-22583,22	614,00
-22524,68	538,00
-22466,33	630,00
-22408,19	654,00
-22350,23	663,00
-22292,48	620,00
-22234,92	701,00
-22177,55	693,00
-22120,37	746,00
-22063,38	576,00
-22006,58	648,00
-21949,98	599,00
-21893,56	506,00
-21837,33	624,00
-21781,28	563,00
-21725,42	638,00
-21669,74	665,00
-21614,25	610,00
-21558,94	647,00
-21503,81	660,00
-21448,86	653,00
-21394,10	572,00
-21339,51	578,00
-21285,10	565,00
-21230,86	568,00
-21176,81	597,00
-21122,93	603,00
-21069,22	554,00
-21015,69	610,00
-20962,33	642,00
-20909,14	564,00
-20856,13	618,00
-20803,28	693,00
-20750,61	656,00
-20698,10	496,00
-20645,76	588,00
-20593,59	702,00
-20541,59	675,00
-20489,75	574,00
-20438,07	564,00
-20386,56	592,00
-20335,22	545,00
-20284,03	602,00
-20233,01	638,00
-20182,15	554,00
-20131,45	589,00
-20080,91	510,00
-20030,52	623,00
-19980,30	618,00
-19930,23	653,00
-19880,32	676,00
-19830,56	600,00
-19780,96	579,00
-19731,52	677,00
-19682,23	672,00
-19633,09	494,00
-19584,10	527,00
-19535,26	618,00
-19486,58	755,00
-19438,04	529,00
-19389,66	682,00
-19341,42	551,00
-19293,33	556,00
-19245,39	645,00
-19197,60	738,00
-19149,95	617,00
-19102,45	688,00
-19055,09	528,00
-19007,87	608,00
-18960,80	730,00
-18913,87	640,00
-18867,09	570,00
-18820,44	673,00
-18773,94	585,00
-18727,57	665,00
-18681,35	640,00
-18635,26	595,00
-18589,31	555,00
-18543,50	541,00
-18497,83	568,00
-18452,29	637,00
-18406,89	477,00
-18361,63	686,00
-18316,50	705,00
-18271,50	603,00
-18226,63	651,00
-18181,90	605,00
-18137,30	661,00
-18092,84	643,00
-18048,50	652,00
-18004,29	635,00
-17960,22	560,00
-17916,27	632,00
-17872,45	696,00
-17828,76	688,00
-17785,20	654,00
-17741,77	705,00
-17698,46	673,00
-17655,28	639,00
-17612,22	643,00
-17569,29	536,00
-17526,48	709,00
-17483,79	622,00
-17441,23	552,00
-17398,79	639,00
-17356,48	567,00
-17314,28	699,00
-17272,21	626,00
-17230,26	659,00
-17188,42	665,00
-17146,71	655,00
-17105,12	637,00
-17063,64	657,00
-17022,28	685,00
-16981,04	554,00
-16939,92	696,00
-16898,91	710,00
-16858,02	513,00
-16817,25	617,00
-16776,59	614,00
-16736,04	659,00
-16695,61	613,00
-16655,29	557,00
-16615,09	521,00
-16574,99	666,00
-16535,01	648,00
-16495,15	691,00
-16455,39	617,00
-16415,74	672,00
-16376,21	599,00
-16336,78	564,00
-16297,46	649,00
-16258,26	566,00
-16219,16	587,00
-16180,17	570,00
-16141,28	679,00
-16102,51	656,00
-16063,84	532,00
-16025,27	616,00
-15986,82	509,00
-15948,46	592,00
-15910,22	659,00
-15872,07	538,00
-15834,04	652,00
-15796,10	626,00
-15758,27	696,00
-15720,54	597,00
-15682,91	663,00
-15645,39	726,00
-15607,97	670,00
-15570,64	580,00
-15533,42	692,00
-15496,30	636,00
-15459,28	667,00
-15422,36	633,00
-15385,54	625,00
-15348,82	612,00
-15312,19	788,00
-15275,66	589,00
-15239,23	552,00
-15202,90	567,00
-15166,67	637,00
-15130,53	681,00
-15094,48	681,00
-15058,54	541,00
-15022,68	519,00
-14986,93	503,00
-14951,26	694,00
-14915,69	645,00
-14880,22	556,00
-14844,84	625,00
-14809,55	665,00
-14774,35	540,00
-14739,25	613,00
-14704,24	646,00
-14669,32	659,00
-14634,49	580,00
-14599,75	720,00
-14565,10	649,00
-14530,55	669,00
-14496,08	646,00
-14461,70	708,00
-14427,41	522,00
-14393,21	475,00
-14359,10	515,00
-14325,07	648,00
-14291,14	590,00
-14257,29	683,00
-14223,52	644,00
-14189,85	743,00
-14156,26	580,00
-14122,76	583,00
-14089,34	494,00
-14056,01	689,00
-14022,76	527,00
-13989,60	711,00
-13956,52	717,00
-13923,53	605,00
-13890,62	541,00
-13857,79	521,00
-13825,05	589,00
-13792,39	497,00
-13759,81	692,00
-13727,31	546,00
-13694,90	599,00
-13662,57	703,00
-13630,31	635,00
-13598,14	666,00
-13566,05	542,00
-13534,05	703,00
-13502,12	604,00
-13470,27	696,00
-13438,50	664,00
-13406,80	619,00
-13375,19	640,00
-13343,66	665,00
-13312,20	717,00
-13280,83	506,00
-13249,53	568,00
-13218,30	577,00
-13187,16	604,00
-13156,09	811,00
-13125,10	650,00
-13094,18	682,00
-13063,34	655,00
-13032,58	581,00
-13001,89	680,00
-12971,28	668,00
-12940,74	683,00
-12910,27	645,00
-12879,88	628,00
-12849,57	643,00
-12819,33	618,00
-12789,16	735,00
-12759,06	601,00
-12729,04	553,00
-12699,09	1552,00
-12669,21	581,00
-12639,41	646,00
-12609,68	537,00
-12580,02	663,00
-12550,43	612,00
-12520,91	534,00
-12491,46	612,00
-12462,08	528,00
-12432,77	634,00
-12403,54	565,00
-12374,37	556,00
-12345,27	625,00
-12316,24	616,00
-12287,29	655,00
-12258,40	609,00
-12229,57	694,00
-12200,82	642,00
-12172,14	744,00
-12143,52	475,00
-12114,97	580,00
-12086,49	621,00
-12058,07	684,00
-12029,73	547,00
-12001,44	634,00
-11973,23	655,00
-11945,08	655,00
-11917,00	670,00
-11888,98	590,00
-11861,03	750,00
-11833,15	586,00
-11805,32	620,00
-11777,57	674,00
-11749,88	688,00
-11722,25	610,00
-11694,69	594,00
-11667,19	585,00
-11639,75	749,00
-11612,38	606,00
-11585,07	570,00
-11557,83	652,00
-11530,65	714,00
-11503,53	524,00
-11476,47	620,00
-11449,48	575,00
-11422,54	800,00
-11395,67	581,00
-11368,86	627,00
-11342,11	639,00
-11315,43	585,00
-11288,80	542,00
-11262,23	603,00
-11235,73	568,00
-11209,28	726,00
-11182,90	616,00
-11156,57	503,00
-11130,31	727,00
-11104,10	536,00
-11077,96	616,00
-11051,87	650,00
-11025,84	610,00
-10999,87	618,00
-10973,96	595,00
-10948,11	568,00
-10922,31	678,00
-10896,58	651,00
-10870,90	729,00
-10845,28	649,00
-10819,71	619,00
-10794,20	656,00
-10768,75	667,00
-10743,36	696,00
-10718,02	648,00
-10692,74	591,00
-10667,52	627,00
-10642,35	654,00
-10617,24	646,00
-10592,18	639,00
-10567,18	616,00
-10542,23	695,00
-10517,34	575,00
-10492,51	647,00
-10467,72	598,00
-10443,00	671,00
-10418,32	659,00
-10393,70	599,00
-10369,14	592,00
-10344,63	513,00
-10320,17	664,00
-10295,77	555,00
-10271,42	585,00
-10247,12	589,00
-10222,88	678,00
-10198,68	494,00
-10174,54	581,00
-10150,46	690,00
-10126,42	612,00
-10102,44	578,00
-10078,51	456,00
-10054,63	614,00
-10030,80	568,00
-10007,03	650,00
-9983,30	526,00
-9959,63	543,00
-9936,01	659,00
-9912,44	518,00
-9888,92	528,00
-9865,44	457,00
-9842,02	523,00
-9818,65	567,00
-9795,33	405,00
-9772,06	556,00
-9748,84	418,00
-9725,67	429,00
-9702,55	499,00
-9679,47	371,00
-9656,45	375,00
-9633,47	283,00
-9610,55	316,00
-9587,67	379,00
-9564,84	391,00
-9542,06	349,00
-9519,32	319,00
-9496,64	296,00
-9474,00	108,00
-9451,41	226,00
-9428,87	111,00
-9406,37	198,00
-9383,92	67,00
-9361,52	78,00
-9339,17	91,00
-9316,86	1,00
-9294,60	3,00
-9272,38	-123,00
-9250,21	-64,00
-9228,09	-71,00
-9206,01	32,00
-9183,98	-77,00
-9162,00	-157,00
-9140,06	-5,00
-9118,16	-99,00
-9096,31	-164,00
-9074,51	-77,00
-9052,75	-24,00
-9031,04	66,00
-9009,37	-28,00
-8987,74	-13,00
-8966,16	114,00
-8944,63	31,00
-8923,14	88,00
-8901,69	-21,00
-8880,29	-23,00
-8858,93	118,00
-8837,61	126,00
-8816,34	78,00
-8795,11	165,00
-8773,92	-32,00
-8752,78	155,00
-8731,68	113,00
-8710,62	271,00
-8689,61	133,00
-8668,63	135,00
-8647,70	182,00
-8626,82	219,00
-8605,97	259,00
-8585,17	202,00
-8564,41	212,00
-8543,69	273,00
-8523,01	60,00
-8502,37	334,00
-8481,78	65,00
-8461,23	40,00
-8440,71	92,00
-8420,24	108,00
-8399,81	287,00
-8379,42	84,00
-8359,08	149,00
-8338,77	80,00
-8318,50	0,00
-8298,27	48,00
-8278,09	173,00
-8257,94	138,00
-8237,83	235,00
-8217,76	108,00
-8197,74	125,00
-8177,75	260,00
-8157,80	120,00
-8137,89	217,00
-8118,02	251,00
-8098,19	272,00
-8078,40	190,00
-8058,65	180,00
-8038,93	284,00
-8019,26	273,00
-7999,62	329,00
-7980,02	264,00
-7960,46	279,00
-7940,94	244,00
-7921,46	296,00
-7902,01	262,00
-7882,60	407,00
-7863,23	315,00
-7843,90	291,00
-7824,61	309,00
-7805,35	392,00
-7786,13	240,00
-7766,95	271,00
-7747,80	336,00
-7728,69	320,00
-7709,62	306,00
-7690,59	284,00
-7671,59	423,00
-7652,63	181,00
-7633,70	211,00
-7614,81	301,00
-7595,96	310,00
-7577,15	332,00
-7558,37	286,00
-7539,62	243,00
-7520,91	225,00
-7502,24	275,00
-7483,60	254,00
-7465,00	201,00
-7446,44	331,00
-7427,91	215,00
-7409,41	290,00
-7390,95	315,00
-7372,53	274,00
-7354,14	232,00
-7335,78	250,00
-7317,46	287,00
-7299,18	203,00
-7280,92	214,00
-7262,71	348,00
-7244,52	162,00
-7226,38	179,00
-7208,26	105,00
-7190,18	217,00
-7172,14	206,00
-7154,12	287,00
-7136,15	127,00
-7118,20	194,00
-7100,29	185,00
-7082,41	292,00
-7064,57	172,00
-7046,76	287,00
-7028,98	135,00
-7011,24	258,00
-6993,53	243,00
-6975,85	278,00
-6958,20	332,00
-6940,59	349,00
-6923,01	212,00
-6905,46	373,00
-6887,94	124,00
-6870,46	374,00
-6853,01	254,00
-6835,59	173,00
-6818,21	98,00
-6800,85	260,00
-6783,53	280,00
-6766,24	223,00
-6748,98	223,00
-6731,76	213,00
-6714,56	188,00
-6697,40	150,00
-6680,26	224,00
-6663,16	291,00
-6646,09	293,00
-6629,05	309,00
-6612,05	131,00
-6595,07	166,00
-6578,13	242,00
-6561,21	294,00
-6544,33	325,00
-6527,47	245,00
-6510,65	334,00
-6493,86	190,00
-6477,10	274,00
-6460,36	287,00
-6443,66	161,00
-6426,99	304,00
-6410,35	358,00
-6393,74	383,00
-6377,16	155,00
-6360,61	182,00
-6344,09	28,00
-6327,59	149,00
-6311,13	297,00
-6294,70	177,00
-6278,29	213,00
-6261,92	137,00
-6245,58	227,00
-6229,26	265,00
-6212,97	293,00
-6196,72	162,00
-6180,49	358,00
-6164,29	320,00
-6148,12	413,00
-6131,98	477,00
-6115,86	315,00
-6099,78	395,00
-6083,72	300,00
-6067,69	257,00
-6051,69	340,00
-6035,72	395,00
-6019,78	334,00
-6003,87	351,00
-5987,98	196,00
-5972,12	254,00
-5956,29	223,00
-5940,49	153,00
-5924,71	426,00
-5908,96	390,00
-5893,24	404,00
-5877,55	373,00
-5861,89	405,00
-5846,25	200,00
-5830,64	331,00
-5815,05	315,00
-5799,50	318,00
-5783,97	419,00
-5768,47	357,00
-5752,99	457,00
-5737,55	186,00
-5722,12	221,00
-5706,73	219,00
-5691,36	318,00
-5676,02	358,00
-5660,71	410,00
-5645,42	413,00
-5630,16	392,00
-5614,92	440,00
-5599,71	196,00
-5584,53	265,00
-5569,37	163,00
-5554,24	1223,00
-5539,14	325,00
-5524,06	368,00
-5509,01	380,00
-5493,98	322,00
-5478,98	302,00
-5464,00	163,00
-5449,05	234,00
-5434,13	346,00
-5419,23	357,00
-5404,36	281,00
-5389,51	353,00
-5374,69	173,00
-5359,89	201,00
-5345,12	254,00
-5330,37	326,00
-5315,65	293,00
-5300,95	449,00
-5286,28	327,00
-5271,63	295,00
-5257,01	214,00
-5242,41	204,00
-5227,84	241,00
-5213,29	425,00
-5198,76	369,00
-5184,26	514,00
-5169,79	315,00
-5155,33	307,00
-5140,91	293,00
-5126,51	312,00
-5112,13	253,00
-5097,77	395,00
-5083,44	458,00
-5069,13	363,00
-5054,85	455,00
-5040,59	397,00
-5026,36	400,00
-5012,15	377,00
-4997,96	393,00
-4983,80	440,00
-4969,66	329,00
-4955,54	435,00
-4941,44	489,00
-4927,37	296,00
-4913,33	261,00
-4899,30	182,00
-4885,30	277,00
-4871,33	254,00
-4857,37	405,00
-4843,44	538,00
-4829,53	547,00
-4815,65	429,00
-4801,79	290,00
-4787,95	369,00
-4774,13	408,00
-4760,34	442,00
-4746,56	568,00
-4732,82	407,00
-4719,09	426,00
-4705,38	466,00
-4691,70	276,00
-4678,04	409,00
-4664,41	426,00
-4650,79	556,00
-4637,20	421,00
-4623,63	461,00
-4610,08	529,00
-4596,56	302,00
-4583,05	324,00
-4569,57	421,00
-4556,11	565,00
-4542,67	494,00
-4529,25	512,00
-4515,86	452,00
-4502,49	315,00
-4489,13	312,00
-4475,80	494,00
-4462,49	317,00
-4449,21	567,00
-4435,94	516,00
-4422,70	366,00
-4409,47	377,00
-4396,27	381,00
-4383,09	430,00
-4369,93	577,00
-4356,79	502,00
-4343,67	570,00
-4330,58	538,00
-4317,50	578,00
-4304,45	578,00
-4291,41	614,00
-4278,40	574,00
-4265,41	504,00
-4252,44	564,00
-4239,49	345,00
-4226,55	464,00
-4213,65	490,00
-4200,76	634,00
-4187,89	633,00
-4175,04	445,00
-4162,21	556,00
-4149,40	527,00
-4136,61	622,00
-4123,85	608,00
-4111,10	595,00
-4098,37	657,00
-4085,66	592,00
-4072,98	615,00
-4060,31	616,00
-4047,66	679,00
-4035,04	806,00
-4022,43	578,00
-4009,84	660,00
-3997,27	557,00
-3984,72	588,00
-3972,19	681,00
-3959,69	660,00
-3947,20	554,00
-3934,73	605,00
-3922,27	536,00
-3909,84	608,00
-3897,43	645,00
-3885,04	688,00
-3872,67	641,00
-3860,31	599,00
-3847,98	648,00
-3835,66	705,00
-3823,36	754,00
-3811,09	644,00
-3798,83	587,00
-3786,59	688,00
-3774,37	676,00
-3762,17	526,00
-3749,98	587,00
-3737,82	607,00
-3725,67	722,00
-3713,55	614,00
-3701,44	724,00
-3689,35	619,00
-3677,28	797,00
-3665,22	634,00
-3653,19	693,00
-3641,17	589,00
-3629,18	736,00
-3617,20	674,00
-3605,24	612,00
-3593,30	753,00
-3581,37	681,00
-3569,47	637,00
-3557,58	677,00
-3545,71	726,00
-3533,86	738,00
-3522,02	582,00
-3510,21	653,00
-3498,41	627,00
-3486,63	602,00
-3474,87	667,00
-3463,12	686,00
-3451,40	622,00
-3439,69	605,00
-3428,00	620,00
-3416,33	601,00
-3404,67	577,00
-3393,03	623,00
-3381,41	608,00
-3369,81	658,00
-3358,22	636,00
-3346,66	768,00
-3335,10	650,00
-3323,57	588,00
-3312,06	628,00
-3300,56	666,00
-3289,08	592,00
-3277,61	610,00
-3266,16	670,00
-3254,73	553,00
-3243,32	627,00
-3231,92	517,00
-3220,55	690,00
-3209,18	799,00
-3197,84	629,00
-3186,51	550,00
-3175,20	578,00
-3163,90	592,00
-3152,63	740,00
-3141,36	585,00
-3130,12	676,00
-3118,89	650,00
-3107,68	572,00
-3096,49	672,00
-3085,31	595,00
-3074,15	655,00
-3063,00	704,00
-3051,87	645,00
-3040,76	586,00
-3029,67	725,00
-3018,59	735,00
-3007,52	715,00
-2996,48	572,00
-2985,44	710,00
-2974,43	691,00
-2963,43	591,00
-2952,45	584,00
-2941,48	648,00
-2930,53	638,00
-2919,60	569,00
-2908,68	613,00
-2897,78	668,00
-2886,89	667,00
-2876,02	684,00
-2865,17	597,00
-2854,33	634,00
-2843,50	676,00
-2832,70	644,00
-2821,90	604,00
-2811,13	720,00
-2800,37	668,00
-2789,62	493,00
-2778,89	705,00
-2768,18	682,00
-2757,48	610,00
-2746,80	703,00
-2736,13	623,00
-2725,48	758,00
-2714,84	556,00
-2704,22	584,00
-2693,61	557,00
-2683,02	554,00
-2672,45	688,00
-2661,89	712,00
-2651,34	736,00
-2640,81	698,00
-2630,30	726,00
-2619,80	575,00
-2609,31	719,00
-2598,84	599,00
-2588,39	654,00
-2577,95	615,00
-2567,52	554,00
-2557,11	668,00
-2546,71	663,00
-2536,33	750,00
-2525,97	629,00
-2515,62	683,00
-2505,28	590,00
-2494,96	616,00
-2484,65	694,00
-2474,36	867,00
-2464,08	565,00
-2453,82	756,00
-2443,57	609,00
-2433,33	567,00
-2423,11	753,00
-2412,91	677,00
-2402,72	539,00
-2392,54	640,00
-2382,38	599,00
-2372,23	734,00
-2362,09	1346,00
-2351,97	627,00
-2341,87	597,00
-2331,78	648,00
-2321,70	682,00
-2311,64	655,00
-2301,59	646,00
-2291,55	610,00
-2281,53	668,00
-2271,53	567,00
-2261,53	661,00
-2251,55	707,00
-2241,59	669,00
-2231,64	602,00
-2221,70	554,00
-2211,78	656,00
-2201,87	609,00
-2191,97	640,00
-2182,09	625,00
-2172,22	733,00
-2162,37	575,00
-2152,53	559,00
-2142,70	577,00
-2132,89	578,00
-2123,09	687,00
-2113,30	570,00
-2103,53	666,00
-2093,77	679,00
-2084,02	645,00
-2074,29	683,00
-2064,57	639,00
-2054,86	661,00
-2045,17	649,00
-2035,49	631,00
-2025,82	601,00
-2016,17	599,00
-2006,53	653,00
-1996,91	677,00
-1987,29	568,00
-1977,69	720,00
-1968,11	599,00
-1958,53	653,00
-1948,97	565,00
-1939,42	583,00
-1929,89	570,00
-1920,37	602,00
-1910,86	625,00
-1901,36	644,00
-1891,88	573,00
-1882,41	639,00
-1872,95	641,00
-1863,51	742,00
-1854,08	637,00
-1844,66	731,00
-1835,26	744,00
-1825,86	726,00
-1816,48	580,00
-1807,11	710,00
-1797,76	688,00
-1788,42	728,00
-1779,09	653,00
-1769,77	613,00
-1760,47	727,00
-1751,17	641,00
-1741,89	639,00
-1732,63	559,00
-1723,37	781,00
-1714,13	755,00
-1704,90	557,00
-1695,68	812,00
-1686,48	532,00
-1677,29	635,00
-1668,11	770,00
-1658,94	606,00
-1649,78	629,00
-1640,64	671,00
-1631,51	629,00
-1622,39	710,00
-1613,28	618,00
-1604,19	759,00
-1595,10	575,00
-1586,03	605,00
-1576,97	641,00
-1567,93	584,00
-1558,89	627,00
-1549,87	692,00
-1540,86	678,00
-1531,86	628,00
-1522,87	590,00
-1513,90	610,00
-1504,93	653,00
-1495,98	722,00
-1487,04	727,00
-1478,12	623,00
-1469,20	654,00
-1460,30	633,00
-1451,40	764,00
-1442,52	750,00
-1433,65	737,00
-1424,80	609,00
-1415,95	615,00
-1407,12	886,00
-1398,30	634,00
-1389,48	680,00
-1380,69	543,00
-1371,90	636,00
-1363,12	666,00
-1354,36	736,00
-1345,60	625,00
-1336,86	609,00
-1328,13	802,00
-1319,41	703,00
-1310,70	607,00
-1302,01	604,00
-1293,32	579,00
-1284,65	609,00
-1275,99	712,00
-1267,33	720,00
-1258,69	707,00
-1250,06	673,00
-1241,45	614,00
-1232,84	797,00
-1224,25	666,00
-1215,66	694,00
-1207,09	705,00
-1198,53	657,00
-1189,97	674,00
-1181,43	535,00
-1172,91	653,00
-1164,39	718,00
-1155,88	584,00
-1147,38	577,00
-1138,90	666,00
-1130,43	636,00
-1121,96	643,00
-1113,51	646,00
-1105,07	599,00
-1096,64	723,00
-1088,22	656,00
-1079,81	658,00
-1071,41	780,00
-1063,02	600,00
-1054,65	791,00
-1046,28	719,00
-1037,92	707,00
-1029,58	617,00
-1021,24	681,00
-1012,92	908,00
-1004,61	650,00
-996,30	754,00
-988,01	580,00
-979,73	610,00
-971,46	717,00
-963,20	652,00
-954,95	579,00
-946,71	644,00
-938,48	621,00
-930,26	767,00
-922,06	700,00
-913,86	620,00
-905,67	583,00
-897,49	717,00
-889,33	477,00
-881,17	755,00
-873,02	640,00
-864,89	542,00
-856,76	616,00
-848,65	671,00
-840,54	695,00
-832,45	684,00
-824,36	601,00
-816,29	705,00
-808,22	691,00
-800,17	716,00
-792,12	686,00
-784,09	737,00
-776,06	577,00
-768,05	670,00
-760,04	616,00
-752,05	565,00
-744,07	676,00
-736,09	673,00
-728,13	518,00
-720,17	635,00
-712,23	628,00
-704,29	576,00
-696,37	691,00
-688,45	736,00
-680,55	585,00
-672,65	602,00
-664,77	694,00
-656,89	707,00
-649,03	559,00
-641,17	703,00
-633,32	583,00
-625,49	657,00
-617,66	622,00
-609,84	724,00
-602,03	508,00
-594,23	670,00
-586,45	679,00
-578,67	629,00
-570,90	639,00
-563,14	598,00
-555,39	703,00
-547,65	658,00
-539,91	661,00
-532,19	716,00
-524,48	671,00
-516,78	639,00
-509,08	765,00
-501,40	686,00
-493,72	751,00
-486,06	595,00
-478,40	753,00
-470,76	628,00
-463,12	627,00
-455,49	649,00
-447,87	657,00
-440,26	672,00
-432,66	625,00
-425,07	698,00
-417,49	781,00
-409,92	576,00
-402,35	603,00
-394,80	572,00
-387,25	749,00
-379,72	661,00
-372,19	771,00
-364,67	762,00
-357,17	720,00
-349,67	741,00
-342,18	699,00
-334,69	680,00
-327,22	730,00
-319,76	720,00
-312,30	702,00
-304,86	658,00
-297,42	749,00
-290,00	682,00
-282,58	737,00
-275,17	766,00
-267,77	809,00
-260,37	771,00
-252,99	890,00
-245,62	823,00
-238,25	730,00
-230,90	749,00
-223,55	837,00
-216,21	772,00
-208,88	1015,00
-201,56	877,00
-194,25	984,00
-186,94	1046,00
-179,65	1039,00
-172,36	1071,00
-165,08	1093,00
-157,81	1219,00
-150,55	1323,00
-143,30	1332,00
-136,06	1421,00
-128,82	1418,00
-121,60	1441,00
-114,38	1584,00
-107,17	1810,00
-99,97	2011,00
-92,78	2106,00
-85,60	2309,00
-78,42	2682,00
-71,25	2892,00
-64,10	3282,00
-56,95	3659,00
-49,81	4424,00
-42,67	5303,00
-35,55	6412,00
-28,43	8258,00
-21,33	13479,00
-14,23	41943,00
-7,14	57498,00
-0,05	57284,00
7,02	57012,00
14,09	57319,00
21,14	35246,00
28,19	15983,00
35,23	10353,00
42,27	8029,00
49,29	6757,00
56,31	5827,00
63,32	4892,00
70,32	4177,00
77,31	3670,00
84,29	3313,00
91,27	3000,00
98,23	2898,00
105,19	2805,00
112,14	3436,00
119,09	5248,00
126,02	8135,00
132,95	9440,00
139,87	9592,00
146,78	9851,00
153,68	9699,00
160,58	9674,00
167,46	9428,00
174,34	9581,00
181,21	9489,00
188,08	9487,00
194,93	9439,00
201,78	9428,00
208,62	9637,00
215,45	9644,00
222,27	9608,00
229,09	9640,00
235,90	9590,00
242,70	9582,00
249,49	9560,00
256,27	9506,00
263,05	9415,00
269,82	9614,00
276,58	9392,00
283,33	9301,00
290,08	9275,00
296,82	9203,00
303,55	9112,00
310,27	8944,00
316,98	8931,00
323,69	9119,00
330,39	9045,00
337,08	9085,00
343,76	8990,00
350,44	9004,00
357,11	8916,00
363,77	8918,00
370,42	9030,00
377,07	8818,00
383,71	8910,00
390,34	8897,00
396,96	8981,00
403,58	8965,00
410,19	9127,00
416,79	9082,00
423,38	9213,00
429,97	9022,00
436,55	8752,00
443,12	8635,00
449,68	8619,00
456,24	8592,00
462,79	8700,00
469,33	8550,00
475,86	8474,00
482,39	8443,00
488,91	8566,00
495,42	8371,00
501,93	8366,00
508,42	8454,00
514,91	8174,00
521,40	8318,00
527,87	8219,00
534,34	8088,00
540,80	8308,00
547,25	8271,00
553,70	8299,00
560,14	8173,00
566,57	8271,00
573,00	8215,00
579,41	8216,00
585,83	8217,00
592,23	8180,00
598,62	8214,00
605,01	8170,00
611,40	8138,00
617,77	8148,00
624,14	7925,00
630,50	7965,00
636,85	8005,00
643,20	7929,00
649,54	7780,00
655,87	7766,00
662,20	7966,00
668,52	7856,00
674,83	7817,00
681,13	7747,00
687,43	7869,00
693,72	7610,00
700,00	7669,00
706,28	7734,00
712,55	7632,00
718,81	7742,00
725,07	7697,00
731,32	7720,00
737,56	7744,00
743,79	7639,00
750,02	7635,00
756,24	7707,00
762,46	7600,00
768,67	7734,00
774,87	7818,00
781,06	7592,00
787,25	7607,00
793,43	7701,00
799,60	7528,00
805,77	7657,00
811,93	7720,00
818,08	7639,00
824,23	7569,00
830,37	7785,00
836,50	7548,00
842,63	7529,00
848,75	7533,00
854,87	7582,00
860,97	7584,00
867,07	7400,00
873,17	7403,00
879,25	7462,00
885,33	7405,00
891,41	7525,00
897,47	7441,00
903,53	7365,00
909,59	7342,00
915,63	7195,00
921,67	7108,00
927,71	7224,00
933,74	7031,00
939,76	6957,00
945,77	7066,00
951,78	7105,00
957,78	7031,00
963,78	7211,00
969,77	7024,00
975,75	7046,00
981,72	6922,00
987,69	8057,00
993,66	7229,00
999,61	7093,00
1005,56	7043,00
1011,51	7120,00
1017,44	7052,00
1023,37	7153,00
1029,30	7019,00
1035,22	7219,00
1041,13	7130,00
1047,03	7290,00
1052,93	7287,00
1058,83	7816,00
1064,71	8176,00
1070,59	7909,00
1076,47	7538,00
1082,33	7384,00
1088,20	7379,00
1094,05	7114,00
1099,90	7096,00
1105,74	6975,00
1111,58	7032,00
1117,41	7246,00
1123,23	7537,00
1129,05	7809,00
1134,86	7670,00
1140,67	7294,00
1146,47	7006,00
1152,26	7071,00
1158,05	6948,00
1163,83	6985,00
1169,60	7048,00
1175,37	7011,00
1181,13	7022,00
1186,89	6834,00
1192,64	6757,00
1198,38	7013,00
1204,12	6747,00
1209,85	6784,00
1215,58	6854,00
1221,30	6893,00
1227,02	6862,00
1232,72	6851,00
1238,43	6824,00
1244,12	6733,00
1249,81	6808,00
1255,50	6992,00
1261,17	6962,00
1266,85	6959,00
1272,51	7065,00
1278,17	7013,00
1283,83	7124,00
1289,47	7721,00
1295,12	8478,00
1300,75	8212,00
1306,38	7817,00
1312,01	7398,00
1317,63	7198,00
1323,24	7045,00
1328,85	6943,00
1334,45	6865,00
1340,04	6980,00
1345,63	6952,00
1351,22	6928,00
1356,80	6869,00
1362,37	7055,00
1367,93	6930,00
1373,49	6984,00
1379,05	6951,00
1384,60	6879,00
1390,14	6961,00
1395,68	6988,00
1401,21	7024,00
1406,74	7130,00
1412,26	7289,00
1417,77	7586,00
1423,28	7442,00
1428,78	7696,00
1434,28	8297,00
1439,77	8765,00
1445,26	8668,00
1450,74	8453,00
1456,22	8150,00
1461,68	8021,00
1467,15	7923,00
1472,61	7421,00
1478,06	7279,00
1483,51	7051,00
1488,95	6712,00
1494,38	6828,00
1499,81	6642,00
1505,24	6626,00
1510,65	6524,00
1516,07	6556,00
1521,48	6494,00
1526,88	6351,00
1532,27	6404,00
1537,67	6353,00
1543,05	6258,00
1548,43	6164,00
1553,81	6392,00
1559,18	6100,00
1564,54	6227,00
1569,90	6133,00
1575,25	6069,00
1580,60	6120,00
1585,94	6120,00
1591,28	6053,00
1596,61	6066,00
1601,93	6161,00
1607,25	6175,00
1612,57	6023,00
1617,88	5978,00
1623,18	6056,00
1628,48	5848,00
1633,77	5917,00
1639,06	5900,00
1644,34	5802,00
1649,62	5742,00
1654,89	5779,00
1660,16	5737,00
1665,42	5807,00
1670,67	5724,00
1675,92	5712,00
1681,17	5717,00
1686,41	5731,00
1691,64	5637,00
1696,87	5605,00
1702,10	5568,00
1707,32	5530,00
1712,53	5517,00
1717,74	5566,00
1722,94	5700,00
1728,14	5419,00
1733,33	5385,00
1738,52	5226,00
1743,70	5380,00
1748,88	5307,00
1754,05	5253,00
1759,22	5153,00
1764,38	4449,00
1769,53	5230,00
1774,69	5169,00
1779,83	5077,00
1784,97	5169,00
1790,11	5012,00
1795,24	5073,00
1800,36	4984,00
1805,48	4878,00
1810,60	5035,00
1815,71	5094,00
1820,82	4932,00
1825,92	5088,00
1831,01	4909,00
1836,10	4823,00
1841,19	4956,00
1846,26	4861,00
1851,34	4984,00
1856,41	4859,00
1861,47	4802,00
1866,53	4977,00
1871,59	4852,00
1876,64	4687,00
1881,68	4746,00
1886,72	4871,00
1891,76	4612,00
1896,79	4655,00
1901,81	4584,00
1906,83	4581,00
1911,85	4465,00
1916,86	4545,00
1921,86	4432,00
1926,86	4396,00
1931,86	4459,00
1936,85	4358,00
1941,83	4289,00
1946,81	4217,00
1951,79	4159,00
1956,76	4251,00
1961,72	4139,00
1966,68	4267,00
1971,64	4144,00
1976,59	4220,00
1981,54	4186,00
1986,48	4158,00
1991,42	4016,00
1996,35	4233,00
2001,27	4026,00
2006,20	3977,00
2011,11	4127,00
2016,03	4098,00
2020,93	3946,00
2025,84	4187,00
2030,73	4059,00
2035,63	4051,00
2040,52	4021,00
2045,40	3899,00
2050,28	3879,00
2055,15	3961,00
2060,02	3876,00
2064,89	3937,00
2069,75	3846,00
2074,60	3823,00
2079,46	3700,00
2084,30	3815,00
2089,14	3779,00
2093,98	3880,00
2098,81	3865,00
2103,64	3856,00
2108,46	3936,00
2113,28	3888,00
2118,09	3823,00
2122,90	3829,00
2127,70	3714,00
2132,50	3796,00
2137,30	3656,00
2142,09	3583,00
2146,87	3560,00
2151,66	3689,00
2156,43	3624,00
2161,20	3567,00
2165,97	3723,00
2170,73	3633,00
2175,49	3744,00
2180,24	3762,00
2184,99	3773,00
2189,74	3731,00
2194,48	3746,00
2199,21	3612,00
2203,94	3585,00
2208,67	3476,00
2213,39	3389,00
2218,11	3509,00
2222,82	3328,00
2227,53	3500,00
2232,23	3358,00
2236,93	3359,00
2241,63	3360,00
2246,32	3415,00
2251,00	3335,00
2255,68	3333,00
2260,36	3210,00
2265,03	3255,00
2269,70	3258,00
2274,36	3339,00
2279,02	3357,00
2283,68	3141,00
2288,33	3178,00
2292,97	3184,00
2297,61	3138,00
2302,25	3135,00
2306,88	3086,00
2311,51	3034,00
2316,14	3092,00
2320,75	3052,00
2325,37	3122,00
2329,98	3177,00
2334,59	3071,00
2339,19	2999,00
2343,79	2908,00
2348,38	2834,00
2352,97	2917,00
2357,55	3010,00
2362,13	2909,00
2366,71	2868,00
2371,28	3071,00
2375,85	2942,00
2380,41	2875,00
2384,97	2847,00
2389,52	2880,00
2394,07	2849,00
2398,62	2628,00
2403,16	2812,00
2407,70	2720,00
2412,23	2700,00
2416,76	2864,00
2421,29	2790,00
2425,81	2914,00
2430,32	2864,00
2434,84	2612,00
2439,34	2649,00
2443,85	2773,00
2448,35	2573,00
2452,84	2536,00
2457,33	2655,00
2461,82	2481,00
2466,30	2494,00
2470,78	2530,00
2475,25	2589,00
2479,72	2509,00
2484,19	2627,00
2488,65	2506,00
2493,11	2433,00
2497,56	2604,00
2502,01	2432,00
2506,46	2454,00
2510,90	2384,00
2515,34	2377,00
2519,77	2549,00
2524,20	2420,00
2528,62	2475,00
2533,04	2443,00
2537,46	2387,00
2541,87	2394,00
2546,28	2347,00
2550,68	2389,00
2555,08	2317,00
2559,48	2315,00
2563,87	2172,00
2568,26	2215,00
2572,64	2286,00
2577,02	2239,00
2581,40	2120,00
2585,77	2250,00
2590,14	2186,00
2594,50	2044,00
2598,86	2217,00
2603,22	2190,00
2607,57	2060,00
2611,92	2124,00
2616,26	2269,00
2620,60	2163,00
2624,94	2109,00
2629,27	2122,00
2633,60	1998,00
2637,92	2174,00
2642,24	2122,00
2646,56	2114,00
2650,87	2047,00
2655,18	2209,00
2659,48	2032,00
2663,78	2017,00
2668,08	2114,00
2672,37	2148,00
2676,66	2122,00
2680,95	1971,00
2685,23	2082,00
2689,50	2027,00
2693,78	2092,00
2698,05	2065,00
2702,31	2069,00
2706,57	2202,00
2710,83	2225,00
2715,08	2243,00
2719,33	2202,00
2723,58	2192,00
2727,82	2287,00
2732,06	2137,00
2736,29	2128,00
2740,53	2090,00
2744,75	2028,00
2748,97	1978,00
2753,19	2053,00
2757,41	2061,00
2761,62	2013,00
2765,83	2020,00
2770,03	2003,00
2774,23	2044,00
2778,43	1926,00
2782,62	2022,00
2786,81	1956,00
2791,00	2058,00
2795,18	1964,00
2799,35	2100,00
2803,53	2116,00
2807,70	2131,00
2811,86	2148,00
2816,03	2184,00
2820,19	2234,00
2824,34	2187,00
2828,49	2371,00
2832,64	2557,00
2836,78	2808,00
2840,92	3122,00
2845,06	3531,00
2849,19	3804,00
2853,32	3917,00
2857,45	3897,00
2861,57	3945,00
2865,69	3726,00
2869,80	3604,00
2873,91	3657,00
2878,02	3962,00
2882,12	4120,00
2886,22	4069,00
2890,32	3845,00
2894,41	3746,00
2898,50	3531,00
2902,58	3422,00
2906,67	3284,00
2910,74	3205,00
2914,82	3058,00
2918,89	2997,00
2922,96	2911,00
2927,02	2662,00
2931,08	2547,00
2935,13	2445,00
2939,19	2447,00
2943,24	2285,00
2947,28	2282,00
2951,32	2101,00
2955,36	1849,00
2959,40	1960,00
2963,43	1867,00
2967,46	1817,00
2971,48	1756,00
2975,50	1682,00
2979,52	1767,00
2983,53	1662,00
2987,54	1618,00
2991,55	1586,00
2995,55	1657,00
2999,55	1501,00
3003,54	1436,00
3007,54	1450,00
3011,53	1430,00
3015,51	1381,00
3019,49	1414,00
3023,47	1289,00
3027,45	1457,00
3031,42	1365,00
3035,39	1248,00
3039,35	1262,00
3043,31	1371,00
3047,27	1260,00
3051,22	1330,00
3055,17	1379,00
3059,12	1298,00
3063,06	1320,00
3067,00	1233,00
3070,94	1177,00
3074,87	1311,00
3078,80	1135,00
3082,73	1275,00
3086,65	1178,00
3090,57	1211,00
3094,49	1179,00
3098,40	1202,00
3102,31	1042,00
3106,22	1110,00
3110,12	1102,00
3114,02	1090,00
3117,92	1129,00
3121,81	1189,00
3125,70	1118,00
3129,58	1119,00
3133,47	932,00
3137,34	1103,00
3141,22	1130,00
3145,09	1127,00
3148,96	1142,00
3152,83	1196,00
3156,69	1103,00
3160,55	996,00
3164,40	1137,00
3168,26	1131,00
3172,10	1244,00
3175,95	1034,00
3179,79	1094,00
3183,63	1070,00
3187,47	1004,00
3191,30	1094,00
3195,13	1067,00
3198,95	916,00
3202,78	967,00
3206,60	929,00
3210,41	944,00
3214,23	1019,00
3218,03	1046,00
3221,84	1030,00
3225,64	982,00
3229,44	892,00
3233,24	901,00
3237,03	889,00
3240,82	823,00
3244,61	861,00
3248,39	919,00
3252,17	928,00
3255,95	1039,00
3259,72	936,00
3263,49	1071,00
3267,26	964,00
3271,03	967,00
3274,79	865,00
3278,54	966,00
3282,30	846,00
3286,05	948,00
3289,80	923,00
3293,54	979,00
3297,29	912,00
3301,02	899,00
3304,76	901,00
3308,49	963,00
3312,22	897,00
3315,95	874,00
3319,67	862,00
3323,39	966,00
3327,10	934,00
3330,82	845,00
3334,53	834,00
3338,24	820,00
3341,94	818,00
3345,64	887,00
3349,34	845,00
3353,03	855,00
3356,72	797,00
3360,41	882,00
3364,10	751,00
3367,78	762,00
3371,46	768,00
3375,13	891,00
3378,81	855,00
3382,48	740,00
3386,14	875,00
3389,81	829,00
3393,47	773,00
3397,12	905,00
3400,78	804,00
3404,43	801,00
3408,08	881,00
3411,72	803,00
3415,36	768,00
3419,00	682,00
3422,64	803,00
3426,27	805,00
3429,90	769,00
3433,53	758,00
3437,15	753,00
3440,77	720,00
3444,39	715,00
3448,00	754,00
3451,62	711,00
3455,22	755,00
3458,83	716,00
3462,43	714,00
3466,03	754,00
3469,63	682,00
3473,22	713,00
3476,81	701,00
3480,40	785,00
3483,99	746,00
3487,57	727,00
3491,15	802,00
3494,72	747,00
3498,29	772,00
3501,86	644,00
3505,43	661,00
3508,99	690,00
3512,56	589,00
3516,11	772,00
3519,67	704,00
3523,22	773,00
3526,77	663,00
3530,32	843,00
3533,86	752,00
3537,40	799,00
3540,94	762,00
3544,47	656,00
3548,00	705,00
3551,53	716,00
3555,06	726,00
3558,58	747,00
3562,10	722,00
3565,62	643,00
3569,13	675,00
3572,64	854,00
3576,15	604,00
3579,66	606,00
3583,16	726,00
3586,66	639,00
3590,16	720,00
3593,65	609,00
3597,14	665,00
3600,63	569,00
3604,11	703,00
3607,60	639,00
3611,08	686,00
3614,55	644,00
3618,03	630,00
3621,50	567,00
3624,97	555,00
3628,43	711,00
3631,90	681,00
3635,36	530,00
3638,81	623,00
3642,27	582,00
3645,72	588,00
3649,17	550,00
3652,61	674,00
3656,06	569,00
3659,50	672,00
3662,93	646,00
3666,37	654,00
3669,80	735,00
3673,23	709,00
3676,65	559,00
3680,08	737,00
3683,50	641,00
3686,92	589,00
3690,33	600,00
3693,74	573,00
3697,15	478,00
3700,56	643,00
3703,96	677,00
3707,36	515,00
3710,76	466,00
3714,16	551,00
3717,55	544,00
3720,94	495,00
3724,33	550,00
3727,71	665,00
3731,10	641,00
3734,48	600,00
3737,85	473,00
3741,23	530,00
3744,60	573,00
3747,97	507,00
3751,33	596,00
3754,69	587,00
3758,05	520,00
3761,41	509,00
3764,77	508,00
3768,12	519,00
3771,47	398,00
3774,82	533,00
3778,16	-9,00
3781,50	13,00
3784,84	7,00
3788,18	8,00
>>>>>End Processed Spectral Data<<<<<
