SpectraSuite Data File
++++++++++++++++++++++++++++++++++++
Date: Mon Jan 05 16:25:22 ICT 2026
User: Administrator
Dark Spectrum Present: Yes
Reference Spectrum Present: No
Number of Sampled Component Spectra: 1
Spectrometers: MAYP113682
Integration Time (usec): 3000000 (MAYP113682)
Spectra Averaged: 1 (MAYP113682)
Boxcar Smoothing: 0 (MAYP113682)
Correct for Electrical Dark: No (MAYP113682)
Strobe/Lamp Enabled: No (MAYP113682)
Correct for Detector Non-linearity: No (MAYP113682)
Correct for Stray Light: No (MAYP113682)
Number of Pixels in Processed Spectrum: 2068
>>>>>Begin Processed Spectral Data<<<<<
-37534,58	13,00
-37414,56	1,00
-37295,11	3,00
-37176,24	1,00
-37057,95	279,00
-36940,22	277,00
-36823,05	365,00
-36706,45	377,00
-36590,40	432,00
-36474,90	337,00
-36359,95	336,00
-36245,55	405,00
-36131,68	338,00
-36018,35	389,00
-35905,55	342,00
-35793,29	432,00
-35681,54	402,00
-35570,32	441,00
-35459,62	399,00
-35349,43	490,00
-35239,75	392,00
-35130,58	342,00
-35021,91	468,00
-34913,74	388,00
-34806,07	464,00
-34698,89	400,00
-34592,20	402,00
-34486,00	426,00
-34380,28	467,00
-34275,04	367,00
-34170,27	318,00
-34065,98	490,00
-33962,16	445,00
-33858,81	453,00
-33755,92	415,00
-33653,49	435,00
-33551,52	496,00
-33450,01	388,00
-33348,94	464,00
-33248,33	399,00
-33148,16	437,00
-33048,43	324,00
-32949,14	569,00
-32850,29	479,00
-32751,87	416,00
-32653,89	477,00
-32556,33	400,00
-32459,20	391,00
-32362,49	398,00
-32266,19	463,00
-32170,32	364,00
-32074,86	463,00
-31979,82	408,00
-31885,18	487,00
-31790,95	483,00
-31697,12	496,00
-31603,69	505,00
-31510,67	512,00
-31418,04	485,00
-31325,80	403,00
-31233,95	318,00
-31142,49	391,00
-31051,42	386,00
-30960,73	454,00
-30870,43	483,00
-30780,50	443,00
-30690,95	410,00
-30601,77	505,00
-30512,97	498,00
-30424,53	444,00
-30336,46	465,00
-30248,76	474,00
-30161,42	495,00
-30074,44	440,00
-29987,81	420,00
-29901,55	467,00
-29815,63	458,00
-29730,07	470,00
-29644,86	502,00
-29560,00	440,00
-29475,48	543,00
-29391,30	478,00
-29307,47	470,00
-29223,97	391,00
-29140,81	463,00
-29057,99	533,00
-28975,50	417,00
-28893,34	495,00
-28811,51	461,00
-28730,00	518,00
-28648,82	405,00
-28567,97	495,00
-28487,43	452,00
-28407,21	389,00
-28327,32	341,00
-28247,73	566,00
-28168,46	437,00
-28089,50	466,00
-28010,85	361,00
-27932,51	374,00
-27854,48	417,00
-27776,75	475,00
-27699,32	452,00
-27622,19	401,00
-27545,37	470,00
-27468,84	469,00
-27392,60	469,00
-27316,66	556,00
-27241,01	478,00
-27165,66	420,00
-27090,59	382,00
-27015,81	460,00
-26941,31	475,00
-26867,10	391,00
-26793,17	466,00
-26719,52	406,00
-26646,15	381,00
-26573,06	364,00
-26500,24	421,00
-26427,70	470,00
-26355,43	326,00
-26283,43	491,00
-26211,71	454,00
-26140,25	430,00
-26069,06	447,00
-25998,13	432,00
-25927,46	383,00
-25857,06	407,00
-25786,92	416,00
-25717,04	319,00
-25647,42	499,00
-25578,05	434,00
-25508,94	361,00
-25440,09	399,00
-25371,48	407,00
-25303,13	523,00
-25235,02	445,00
-25167,17	335,00
-25099,56	476,00
-25032,19	444,00
-24965,07	415,00
-24898,20	350,00
-24831,56	382,00
-24765,17	401,00
-24699,01	400,00
-24633,10	476,00
-24567,41	425,00
-24501,97	409,00
-24436,75	479,00
-24371,77	369,00
-24307,03	425,00
-24242,51	461,00
-24178,22	375,00
-24114,16	423,00
-24050,32	514,00
-23986,71	491,00
-23923,32	495,00
-23860,16	484,00
-23797,22	433,00
-23734,50	420,00
-23672,00	454,00
-23609,71	399,00
-23547,65	416,00
-23485,80	421,00
-23424,16	292,00
-23362,74	498,00
-23301,53	433,00
-23240,54	289,00
-23179,75	351,00
-23119,17	439,00
-23058,80	354,00
-22998,64	369,00
-22938,68	401,00
-22878,93	389,00
-22819,39	344,00
-22760,04	366,00
-22700,90	420,00
-22641,96	400,00
-22583,22	384,00
-22524,68	383,00
-22466,33	357,00
-22408,19	424,00
-22350,23	365,00
-22292,48	448,00
-22234,92	444,00
-22177,55	543,00
-22120,37	431,00
-22063,38	300,00
-22006,58	429,00
-21949,98	442,00
-21893,56	322,00
-21837,33	482,00
-21781,28	427,00
-21725,42	430,00
-21669,74	474,00
-21614,25	448,00
-21558,94	429,00
-21503,81	437,00
-21448,86	457,00
-21394,10	476,00
-21339,51	453,00
-21285,10	340,00
-21230,86	332,00
-21176,81	423,00
-21122,93	447,00
-21069,22	298,00
-21015,69	457,00
-20962,33	486,00
-20909,14	416,00
-20856,13	376,00
-20803,28	464,00
-20750,61	469,00
-20698,10	278,00
-20645,76	302,00
-20593,59	484,00
-20541,59	445,00
-20489,75	482,00
-20438,07	370,00
-20386,56	436,00
-20335,22	353,00
-20284,03	410,00
-20233,01	355,00
-20182,15	350,00
-20131,45	350,00
-20080,91	298,00
-20030,52	477,00
-19980,30	477,00
-19930,23	358,00
-19880,32	448,00
-19830,56	379,00
-19780,96	424,00
-19731,52	442,00
-19682,23	421,00
-19633,09	378,00
-19584,10	371,00
-19535,26	443,00
-19486,58	448,00
-19438,04	418,00
-19389,66	443,00
-19341,42	406,00
-19293,33	439,00
-19245,39	421,00
-19197,60	549,00
-19149,95	481,00
-19102,45	368,00
-19055,09	332,00
-19007,87	389,00
-18960,80	412,00
-18913,87	440,00
-18867,09	425,00
-18820,44	505,00
-18773,94	502,00
-18727,57	389,00
-18681,35	370,00
-18635,26	467,00
-18589,31	333,00
-18543,50	380,00
-18497,83	386,00
-18452,29	403,00
-18406,89	322,00
-18361,63	513,00
-18316,50	409,00
-18271,50	465,00
-18226,63	471,00
-18181,90	380,00
-18137,30	498,00
-18092,84	394,00
-18048,50	438,00
-18004,29	411,00
-17960,22	355,00
-17916,27	411,00
-17872,45	464,00
-17828,76	480,00
-17785,20	421,00
-17741,77	466,00
-17698,46	405,00
-17655,28	431,00
-17612,22	410,00
-17569,29	399,00
-17526,48	420,00
-17483,79	552,00
-17441,23	409,00
-17398,79	408,00
-17356,48	363,00
-17314,28	393,00
-17272,21	422,00
-17230,26	424,00
-17188,42	394,00
-17146,71	445,00
-17105,12	346,00
-17063,64	449,00
-17022,28	416,00
-16981,04	432,00
-16939,92	474,00
-16898,91	489,00
-16858,02	311,00
-16817,25	428,00
-16776,59	446,00
-16736,04	372,00
-16695,61	416,00
-16655,29	438,00
-16615,09	382,00
-16574,99	318,00
-16535,01	417,00
-16495,15	483,00
-16455,39	474,00
-16415,74	359,00
-16376,21	426,00
-16336,78	392,00
-16297,46	392,00
-16258,26	347,00
-16219,16	366,00
-16180,17	453,00
-16141,28	394,00
-16102,51	370,00
-16063,84	376,00
-16025,27	427,00
-15986,82	395,00
-15948,46	412,00
-15910,22	398,00
-15872,07	339,00
-15834,04	381,00
-15796,10	384,00
-15758,27	543,00
-15720,54	495,00
-15682,91	443,00
-15645,39	545,00
-15607,97	392,00
-15570,64	354,00
-15533,42	464,00
-15496,30	463,00
-15459,28	386,00
-15422,36	419,00
-15385,54	420,00
-15348,82	420,00
-15312,19	476,00
-15275,66	372,00
-15239,23	417,00
-15202,90	335,00
-15166,67	471,00
-15130,53	425,00
-15094,48	484,00
-15058,54	366,00
-15022,68	404,00
-14986,93	361,00
-14951,26	418,00
-14915,69	492,00
-14880,22	398,00
-14844,84	413,00
-14809,55	342,00
-14774,35	441,00
-14739,25	361,00
-14704,24	450,00
-14669,32	374,00
-14634,49	338,00
-14599,75	429,00
-14565,10	390,00
-14530,55	409,00
-14496,08	440,00
-14461,70	488,00
-14427,41	413,00
-14393,21	270,00
-14359,10	402,00
-14325,07	460,00
-14291,14	377,00
-14257,29	465,00
-14223,52	415,00
-14189,85	426,00
-14156,26	395,00
-14122,76	359,00
-14089,34	379,00
-14056,01	427,00
-14022,76	277,00
-13989,60	402,00
-13956,52	469,00
-13923,53	387,00
-13890,62	331,00
-13857,79	437,00
-13825,05	395,00
-13792,39	344,00
-13759,81	491,00
-13727,31	383,00
-13694,90	511,00
-13662,57	470,00
-13630,31	466,00
-13598,14	424,00
-13566,05	365,00
-13534,05	428,00
-13502,12	399,00
-13470,27	439,00
-13438,50	477,00
-13406,80	417,00
-13375,19	445,00
-13343,66	495,00
-13312,20	419,00
-13280,83	308,00
-13249,53	474,00
-13218,30	321,00
-13187,16	380,00
-13156,09	534,00
-13125,10	442,00
-13094,18	472,00
-13063,34	389,00
-13032,58	321,00
-13001,89	427,00
-12971,28	378,00
-12940,74	442,00
-12910,27	379,00
-12879,88	444,00
-12849,57	404,00
-12819,33	434,00
-12789,16	460,00
-12759,06	412,00
-12729,04	324,00
-12699,09	247,00
-12669,21	429,00
-12639,41	441,00
-12609,68	366,00
-12580,02	329,00
-12550,43	408,00
-12520,91	297,00
-12491,46	417,00
-12462,08	338,00
-12432,77	429,00
-12403,54	444,00
-12374,37	364,00
-12345,27	442,00
-12316,24	425,00
-12287,29	436,00
-12258,40	425,00
-12229,57	493,00
-12200,82	364,00
-12172,14	373,00
-12143,52	311,00
-12114,97	415,00
-12086,49	462,00
-12058,07	441,00
-12029,73	339,00
-12001,44	474,00
-11973,23	421,00
-11945,08	422,00
-11917,00	357,00
-11888,98	380,00
-11861,03	504,00
-11833,15	418,00
-11805,32	520,00
-11777,57	402,00
-11749,88	411,00
-11722,25	389,00
-11694,69	367,00
-11667,19	419,00
-11639,75	418,00
-11612,38	378,00
-11585,07	366,00
-11557,83	397,00
-11530,65	592,00
-11503,53	387,00
-11476,47	397,00
-11449,48	383,00
-11422,54	484,00
-11395,67	454,00
-11368,86	405,00
-11342,11	336,00
-11315,43	413,00
-11288,80	446,00
-11262,23	472,00
-11235,73	464,00
-11209,28	571,00
-11182,90	382,00
-11156,57	386,00
-11130,31	504,00
-11104,10	406,00
-11077,96	394,00
-11051,87	361,00
-11025,84	385,00
-10999,87	508,00
-10973,96	386,00
-10948,11	431,00
-10922,31	445,00
-10896,58	415,00
-10870,90	403,00
-10845,28	469,00
-10819,71	306,00
-10794,20	506,00
-10768,75	489,00
-10743,36	548,00
-10718,02	361,00
-10692,74	393,00
-10667,52	383,00
-10642,35	402,00
-10617,24	407,00
-10592,18	508,00
-10567,18	353,00
-10542,23	462,00
-10517,34	323,00
-10492,51	489,00
-10467,72	399,00
-10443,00	447,00
-10418,32	494,00
-10393,70	480,00
-10369,14	354,00
-10344,63	330,00
-10320,17	404,00
-10295,77	475,00
-10271,42	430,00
-10247,12	394,00
-10222,88	519,00
-10198,68	392,00
-10174,54	446,00
-10150,46	538,00
-10126,42	532,00
-10102,44	385,00
-10078,51	435,00
-10054,63	475,00
-10030,80	483,00
-10007,03	566,00
-9983,30	492,00
-9959,63	514,00
-9936,01	559,00
-9912,44	535,00
-9888,92	542,00
-9865,44	416,00
-9842,02	478,00
-9818,65	566,00
-9795,33	462,00
-9772,06	604,00
-9748,84	496,00
-9725,67	487,00
-9702,55	587,00
-9679,47	507,00
-9656,45	659,00
-9633,47	453,00
-9610,55	551,00
-9587,67	586,00
-9564,84	736,00
-9542,06	714,00
-9519,32	673,00
-9496,64	802,00
-9474,00	721,00
-9451,41	785,00
-9428,87	832,00
-9406,37	875,00
-9383,92	664,00
-9361,52	735,00
-9339,17	836,00
-9316,86	804,00
-9294,60	986,00
-9272,38	998,00
-9250,21	1176,00
-9228,09	1114,00
-9206,01	1126,00
-9183,98	1104,00
-9162,00	916,00
-9140,06	1019,00
-9118,16	957,00
-9096,31	980,00
-9074,51	930,00
-9052,75	1066,00
-9031,04	1148,00
-9009,37	945,00
-8987,74	911,00
-8966,16	908,00
-8944,63	704,00
-8923,14	943,00
-8901,69	776,00
-8880,29	749,00
-8858,93	897,00
-8837,61	921,00
-8816,34	972,00
-8795,11	985,00
-8773,92	840,00
-8752,78	886,00
-8731,68	735,00
-8710,62	866,00
-8689,61	787,00
-8668,63	821,00
-8647,70	976,00
-8626,82	944,00
-8605,97	955,00
-8585,17	842,00
-8564,41	850,00
-8543,69	750,00
-8523,01	743,00
-8502,37	794,00
-8481,78	785,00
-8461,23	732,00
-8440,71	744,00
-8420,24	857,00
-8399,81	994,00
-8379,42	831,00
-8359,08	832,00
-8338,77	707,00
-8318,50	741,00
-8298,27	582,00
-8278,09	832,00
-8257,94	758,00
-8237,83	867,00
-8217,76	797,00
-8197,74	798,00
-8177,75	954,00
-8157,80	699,00
-8137,89	777,00
-8118,02	702,00
-8098,19	806,00
-8078,40	763,00
-8058,65	710,00
-8038,93	712,00
-8019,26	795,00
-7999,62	710,00
-7980,02	649,00
-7960,46	704,00
-7940,94	626,00
-7921,46	631,00
-7902,01	663,00
-7882,60	754,00
-7863,23	636,00
-7843,90	737,00
-7824,61	774,00
-7805,35	810,00
-7786,13	570,00
-7766,95	800,00
-7747,80	742,00
-7728,69	719,00
-7709,62	747,00
-7690,59	608,00
-7671,59	794,00
-7652,63	773,00
-7633,70	660,00
-7614,81	692,00
-7595,96	665,00
-7577,15	695,00
-7558,37	609,00
-7539,62	708,00
-7520,91	657,00
-7502,24	680,00
-7483,60	760,00
-7465,00	681,00
-7446,44	729,00
-7427,91	533,00
-7409,41	562,00
-7390,95	649,00
-7372,53	555,00
-7354,14	584,00
-7335,78	524,00
-7317,46	524,00
-7299,18	469,00
-7280,92	577,00
-7262,71	682,00
-7244,52	664,00
-7226,38	622,00
-7208,26	533,00
-7190,18	499,00
-7172,14	554,00
-7154,12	685,00
-7136,15	600,00
-7118,20	683,00
-7100,29	685,00
-7082,41	699,00
-7064,57	651,00
-7046,76	527,00
-7028,98	499,00
-7011,24	554,00
-6993,53	544,00
-6975,85	520,00
-6958,20	545,00
-6940,59	467,00
-6923,01	440,00
-6905,46	586,00
-6887,94	546,00
-6870,46	-1590,00
-6853,01	695,00
-6835,59	575,00
-6818,21	541,00
-6800,85	612,00
-6783,53	474,00
-6766,24	403,00
-6748,98	487,00
-6731,76	484,00
-6714,56	523,00
-6697,40	415,00
-6680,26	464,00
-6663,16	457,00
-6646,09	501,00
-6629,05	597,00
-6612,05	578,00
-6595,07	446,00
-6578,13	513,00
-6561,21	470,00
-6544,33	582,00
-6527,47	388,00
-6510,65	530,00
-6493,86	362,00
-6477,10	400,00
-6460,36	515,00
-6443,66	337,00
-6426,99	440,00
-6410,35	422,00
-6393,74	494,00
-6377,16	329,00
-6360,61	453,00
-6344,09	398,00
-6327,59	429,00
-6311,13	529,00
-6294,70	439,00
-6278,29	411,00
-6261,92	437,00
-6245,58	579,00
-6229,26	546,00
-6212,97	596,00
-6196,72	483,00
-6180,49	517,00
-6164,29	397,00
-6148,12	511,00
-6131,98	589,00
-6115,86	402,00
-6099,78	402,00
-6083,72	380,00
-6067,69	412,00
-6051,69	393,00
-6035,72	447,00
-6019,78	440,00
-6003,87	462,00
-5987,98	475,00
-5972,12	447,00
-5956,29	476,00
-5940,49	380,00
-5924,71	512,00
-5908,96	434,00
-5893,24	487,00
-5877,55	465,00
-5861,89	472,00
-5846,25	270,00
-5830,64	360,00
-5815,05	409,00
-5799,50	427,00
-5783,97	422,00
-5768,47	441,00
-5752,99	523,00
-5737,55	413,00
-5722,12	457,00
-5706,73	507,00
-5691,36	423,00
-5676,02	448,00
-5660,71	416,00
-5645,42	407,00
-5630,16	489,00
-5614,92	433,00
-5599,71	350,00
-5584,53	462,00
-5569,37	446,00
-5554,24	1255,00
-5539,14	360,00
-5524,06	397,00
-5509,01	443,00
-5493,98	421,00
-5478,98	388,00
-5464,00	363,00
-5449,05	456,00
-5434,13	378,00
-5419,23	447,00
-5404,36	353,00
-5389,51	456,00
-5374,69	479,00
-5359,89	462,00
-5345,12	556,00
-5330,37	609,00
-5315,65	412,00
-5300,95	493,00
-5286,28	431,00
-5271,63	340,00
-5257,01	413,00
-5242,41	503,00
-5227,84	330,00
-5213,29	429,00
-5198,76	421,00
-5184,26	500,00
-5169,79	417,00
-5155,33	429,00
-5140,91	417,00
-5126,51	375,00
-5112,13	458,00
-5097,77	419,00
-5083,44	456,00
-5069,13	360,00
-5054,85	439,00
-5040,59	527,00
-5026,36	480,00
-5012,15	503,00
-4997,96	495,00
-4983,80	522,00
-4969,66	414,00
-4955,54	426,00
-4941,44	482,00
-4927,37	461,00
-4913,33	435,00
-4899,30	526,00
-4885,30	401,00
-4871,33	390,00
-4857,37	397,00
-4843,44	356,00
-4829,53	495,00
-4815,65	491,00
-4801,79	296,00
-4787,95	491,00
-4774,13	487,00
-4760,34	401,00
-4746,56	449,00
-4732,82	401,00
-4719,09	471,00
-4705,38	504,00
-4691,70	482,00
-4678,04	497,00
-4664,41	566,00
-4650,79	585,00
-4637,20	424,00
-4623,63	323,00
-4610,08	549,00
-4596,56	426,00
-4583,05	448,00
-4569,57	389,00
-4556,11	525,00
-4542,67	486,00
-4529,25	429,00
-4515,86	396,00
-4502,49	490,00
-4489,13	417,00
-4475,80	561,00
-4462,49	378,00
-4449,21	527,00
-4435,94	412,00
-4422,70	384,00
-4409,47	384,00
-4396,27	477,00
-4383,09	368,00
-4369,93	399,00
-4356,79	382,00
-4343,67	468,00
-4330,58	433,00
-4317,50	516,00
-4304,45	461,00
-4291,41	406,00
-4278,40	421,00
-4265,41	398,00
-4252,44	459,00
-4239,49	284,00
-4226,55	319,00
-4213,65	357,00
-4200,76	453,00
-4187,89	434,00
-4175,04	450,00
-4162,21	370,00
-4149,40	428,00
-4136,61	456,00
-4123,85	386,00
-4111,10	407,00
-4098,37	498,00
-4085,66	418,00
-4072,98	457,00
-4060,31	412,00
-4047,66	442,00
-4035,04	572,00
-4022,43	344,00
-4009,84	331,00
-3997,27	403,00
-3984,72	430,00
-3972,19	460,00
-3959,69	401,00
-3947,20	417,00
-3934,73	437,00
-3922,27	380,00
-3909,84	453,00
-3897,43	453,00
-3885,04	502,00
-3872,67	391,00
-3860,31	407,00
-3847,98	445,00
-3835,66	424,00
-3823,36	416,00
-3811,09	426,00
-3798,83	479,00
-3786,59	496,00
-3774,37	479,00
-3762,17	361,00
-3749,98	420,00
-3737,82	464,00
-3725,67	559,00
-3713,55	423,00
-3701,44	617,00
-3689,35	425,00
-3677,28	448,00
-3665,22	403,00
-3653,19	440,00
-3641,17	426,00
-3629,18	474,00
-3617,20	377,00
-3605,24	454,00
-3593,30	438,00
-3581,37	500,00
-3569,47	370,00
-3557,58	496,00
-3545,71	472,00
-3533,86	518,00
-3522,02	369,00
-3510,21	448,00
-3498,41	421,00
-3486,63	440,00
-3474,87	502,00
-3463,12	358,00
-3451,40	485,00
-3439,69	409,00
-3428,00	432,00
-3416,33	439,00
-3404,67	349,00
-3393,03	361,00
-3381,41	443,00
-3369,81	397,00
-3358,22	450,00
-3346,66	414,00
-3335,10	483,00
-3323,57	358,00
-3312,06	420,00
-3300,56	464,00
-3289,08	399,00
-3277,61	501,00
-3266,16	437,00
-3254,73	382,00
-3243,32	378,00
-3231,92	408,00
-3220,55	487,00
-3209,18	562,00
-3197,84	367,00
-3186,51	334,00
-3175,20	431,00
-3163,90	337,00
-3152,63	494,00
-3141,36	369,00
-3130,12	475,00
-3118,89	431,00
-3107,68	301,00
-3096,49	542,00
-3085,31	423,00
-3074,15	458,00
-3063,00	470,00
-3051,87	362,00
-3040,76	347,00
-3029,67	567,00
-3018,59	566,00
-3007,52	583,00
-2996,48	437,00
-2985,44	449,00
-2974,43	403,00
-2963,43	335,00
-2952,45	502,00
-2941,48	403,00
-2930,53	413,00
-2919,60	345,00
-2908,68	337,00
-2897,78	450,00
-2886,89	438,00
-2876,02	422,00
-2865,17	325,00
-2854,33	419,00
-2843,50	364,00
-2832,70	396,00
-2821,90	388,00
-2811,13	523,00
-2800,37	434,00
-2789,62	263,00
-2778,89	493,00
-2768,18	446,00
-2757,48	429,00
-2746,80	471,00
-2736,13	390,00
-2725,48	492,00
-2714,84	285,00
-2704,22	363,00
-2693,61	424,00
-2683,02	401,00
-2672,45	433,00
-2661,89	442,00
-2651,34	369,00
-2640,81	431,00
-2630,30	510,00
-2619,80	420,00
-2609,31	515,00
-2598,84	371,00
-2588,39	470,00
-2577,95	388,00
-2567,52	364,00
-2557,11	350,00
-2546,71	511,00
-2536,33	452,00
-2525,97	416,00
-2515,62	389,00
-2505,28	398,00
-2494,96	410,00
-2484,65	499,00
-2474,36	624,00
-2464,08	396,00
-2453,82	575,00
-2443,57	397,00
-2433,33	403,00
-2423,11	510,00
-2412,91	497,00
-2402,72	400,00
-2392,54	391,00
-2382,38	454,00
-2372,23	477,00
-2362,09	-2582,00
-2351,97	440,00
-2341,87	338,00
-2331,78	483,00
-2321,70	445,00
-2311,64	420,00
-2301,59	474,00
-2291,55	409,00
-2281,53	472,00
-2271,53	291,00
-2261,53	504,00
-2251,55	485,00
-2241,59	415,00
-2231,64	488,00
-2221,70	402,00
-2211,78	426,00
-2201,87	429,00
-2191,97	399,00
-2182,09	444,00
-2172,22	457,00
-2162,37	306,00
-2152,53	371,00
-2142,70	425,00
-2132,89	425,00
-2123,09	463,00
-2113,30	385,00
-2103,53	454,00
-2093,77	505,00
-2084,02	442,00
-2074,29	427,00
-2064,57	418,00
-2054,86	463,00
-2045,17	576,00
-2035,49	408,00
-2025,82	349,00
-2016,17	439,00
-2006,53	392,00
-1996,91	392,00
-1987,29	422,00
-1977,69	435,00
-1968,11	413,00
-1958,53	395,00
-1948,97	402,00
-1939,42	437,00
-1929,89	463,00
-1920,37	455,00
-1910,86	336,00
-1901,36	330,00
-1891,88	466,00
-1882,41	365,00
-1872,95	443,00
-1863,51	498,00
-1854,08	456,00
-1844,66	492,00
-1835,26	559,00
-1825,86	516,00
-1816,48	376,00
-1807,11	518,00
-1797,76	463,00
-1788,42	411,00
-1779,09	573,00
-1769,77	364,00
-1760,47	550,00
-1751,17	399,00
-1741,89	339,00
-1732,63	430,00
-1723,37	596,00
-1714,13	546,00
-1704,90	419,00
-1695,68	563,00
-1686,48	373,00
-1677,29	412,00
-1668,11	509,00
-1658,94	361,00
-1649,78	394,00
-1640,64	437,00
-1631,51	334,00
-1622,39	488,00
-1613,28	473,00
-1604,19	572,00
-1595,10	448,00
-1586,03	423,00
-1576,97	489,00
-1567,93	444,00
-1558,89	426,00
-1549,87	493,00
-1540,86	440,00
-1531,86	444,00
-1522,87	404,00
-1513,90	492,00
-1504,93	461,00
-1495,98	521,00
-1487,04	374,00
-1478,12	369,00
-1469,20	388,00
-1460,30	472,00
-1451,40	556,00
-1442,52	449,00
-1433,65	530,00
-1424,80	470,00
-1415,95	422,00
-1407,12	521,00
-1398,30	388,00
-1389,48	500,00
-1380,69	421,00
-1371,90	345,00
-1363,12	500,00
-1354,36	450,00
-1345,60	434,00
-1336,86	365,00
-1328,13	459,00
-1319,41	426,00
-1310,70	469,00
-1302,01	391,00
-1293,32	347,00
-1284,65	372,00
-1275,99	460,00
-1267,33	488,00
-1258,69	467,00
-1250,06	509,00
-1241,45	315,00
-1232,84	527,00
-1224,25	440,00
-1215,66	464,00
-1207,09	463,00
-1198,53	479,00
-1189,97	361,00
-1181,43	405,00
-1172,91	419,00
-1164,39	496,00
-1155,88	368,00
-1147,38	341,00
-1138,90	398,00
-1130,43	443,00
-1121,96	389,00
-1113,51	422,00
-1105,07	503,00
-1096,64	464,00
-1088,22	376,00
-1079,81	530,00
-1071,41	466,00
-1063,02	425,00
-1054,65	522,00
-1046,28	460,00
-1037,92	494,00
-1029,58	455,00
-1021,24	519,00
-1012,92	565,00
-1004,61	488,00
-996,30	553,00
-988,01	378,00
-979,73	430,00
-971,46	472,00
-963,20	447,00
-954,95	388,00
-946,71	409,00
-938,48	429,00
-930,26	459,00
-922,06	419,00
-913,86	428,00
-905,67	388,00
-897,49	528,00
-889,33	398,00
-881,17	571,00
-873,02	442,00
-864,89	347,00
-856,76	399,00
-848,65	453,00
-840,54	479,00
-832,45	396,00
-824,36	410,00
-816,29	486,00
-808,22	488,00
-800,17	480,00
-792,12	433,00
-784,09	487,00
-776,06	408,00
-768,05	440,00
-760,04	448,00
-752,05	468,00
-744,07	485,00
-736,09	484,00
-728,13	355,00
-720,17	432,00
-712,23	460,00
-704,29	367,00
-696,37	392,00
-688,45	550,00
-680,55	415,00
-672,65	305,00
-664,77	443,00
-656,89	402,00
-649,03	434,00
-641,17	524,00
-633,32	432,00
-625,49	443,00
-617,66	404,00
-609,84	444,00
-602,03	320,00
-594,23	433,00
-586,45	430,00
-578,67	393,00
-570,90	411,00
-563,14	372,00
-555,39	545,00
-547,65	528,00
-539,91	536,00
-532,19	544,00
-524,48	442,00
-516,78	457,00
-509,08	503,00
-501,40	410,00
-493,72	461,00
-486,06	377,00
-478,40	475,00
-470,76	320,00
-463,12	460,00
-455,49	454,00
-447,87	455,00
-440,26	382,00
-432,66	434,00
-425,07	479,00
-417,49	449,00
-409,92	440,00
-402,35	371,00
-394,80	386,00
-387,25	455,00
-379,72	488,00
-372,19	500,00
-364,67	447,00
-357,17	400,00
-349,67	511,00
-342,18	371,00
-334,69	468,00
-327,22	453,00
-319,76	429,00
-312,30	426,00
-304,86	419,00
-297,42	516,00
-290,00	462,00
-282,58	491,00
-275,17	444,00
-267,77	531,00
-260,37	501,00
-252,99	549,00
-245,62	521,00
-238,25	505,00
-230,90	522,00
-223,55	515,00
-216,21	623,00
-208,88	659,00
-201,56	499,00
-194,25	552,00
-186,94	616,00
-179,65	595,00
-172,36	667,00
-165,08	622,00
-157,81	684,00
-150,55	689,00
-143,30	645,00
-136,06	751,00
-128,82	783,00
-121,60	817,00
-114,38	859,00
-107,17	1027,00
-99,97	1112,00
-92,78	1105,00
-85,60	1129,00
-78,42	1383,00
-71,25	1464,00
-64,10	1649,00
-56,95	1806,00
-49,81	2027,00
-42,67	2528,00
-35,55	2988,00
-28,43	3848,00
-21,33	6260,00
-14,23	19210,00
-7,14	57498,00
-0,05	57284,00
7,02	57012,00
14,09	57319,00
21,14	17267,00
28,19	7383,00
35,23	4819,00
42,27	3826,00
49,29	3176,00
56,31	2822,00
63,32	2450,00
70,32	2148,00
77,31	1971,00
84,29	1639,00
91,27	1582,00
98,23	1550,00
105,19	1509,00
112,14	1930,00
119,09	3218,00
126,02	5623,00
132,95	6943,00
139,87	7479,00
146,78	7609,00
153,68	7626,00
160,58	7685,00
167,46	7653,00
174,34	7780,00
181,21	7660,00
188,08	7558,00
194,93	7727,00
201,78	7742,00
208,62	7835,00
215,45	7907,00
222,27	7882,00
229,09	7807,00
235,90	7898,00
242,70	7797,00
249,49	7665,00
256,27	7765,00
263,05	7646,00
269,82	7725,00
276,58	7671,00
283,33	7687,00
290,08	7628,00
296,82	7646,00
303,55	7531,00
310,27	7533,00
316,98	7527,00
323,69	7433,00
330,39	7391,00
337,08	7332,00
343,76	7463,00
350,44	7517,00
357,11	7490,00
363,77	7467,00
370,42	7463,00
377,07	7443,00
383,71	7264,00
390,34	7393,00
396,96	7545,00
403,58	7534,00
410,19	7525,00
416,79	7610,00
423,38	7518,00
429,97	7497,00
436,55	7241,00
443,12	7237,00
449,68	7208,00
456,24	7141,00
462,79	7190,00
469,33	7085,00
475,86	7092,00
482,39	7047,00
488,91	7068,00
495,42	7054,00
501,93	7061,00
508,42	6960,00
514,91	6905,00
521,40	6901,00
527,87	6816,00
534,34	6823,00
540,80	6761,00
547,25	6922,00
553,70	6984,00
560,14	6928,00
566,57	6887,00
573,00	6755,00
579,41	6887,00
585,83	6903,00
592,23	6959,00
598,62	6806,00
605,01	6780,00
611,40	6858,00
617,77	6682,00
624,14	6718,00
630,50	6621,00
636,85	6722,00
643,20	6510,00
649,54	6540,00
655,87	6617,00
662,20	6534,00
668,52	6407,00
674,83	6455,00
681,13	6428,00
687,43	6482,00
693,72	6338,00
700,00	6451,00
706,28	6382,00
712,55	6313,00
718,81	6357,00
725,07	6318,00
731,32	6301,00
737,56	6330,00
743,79	6353,00
750,02	6359,00
756,24	6239,00
762,46	6279,00
768,67	6291,00
774,87	6202,00
781,06	6216,00
787,25	6242,00
793,43	6331,00
799,60	6229,00
805,77	6258,00
811,93	6239,00
818,08	6350,00
824,23	6166,00
830,37	6241,00
836,50	6097,00
842,63	6225,00
848,75	6062,00
854,87	5970,00
860,97	6149,00
867,07	6052,00
873,17	6002,00
879,25	5904,00
885,33	5954,00
891,41	6041,00
897,47	5971,00
903,53	5883,00
909,59	5871,00
915,63	5799,00
921,67	5878,00
927,71	5869,00
933,74	5838,00
939,76	5713,00
945,77	5919,00
951,78	5883,00
957,78	5827,00
963,78	5813,00
969,77	5741,00
975,75	5712,00
981,72	5746,00
987,69	6484,00
993,66	5939,00
999,61	5770,00
1005,56	5730,00
1011,51	5765,00
1017,44	5740,00
1023,37	5800,00
1029,30	5883,00
1035,22	5808,00
1041,13	5789,00
1047,03	5868,00
1052,93	5808,00
1058,83	6092,00
1064,71	6089,00
1070,59	5962,00
1076,47	5732,00
1082,33	5782,00
1088,20	5683,00
1094,05	5683,00
1099,90	5494,00
1105,74	5746,00
1111,58	5632,00
1117,41	5625,00
1123,23	5647,00
1129,05	5982,00
1134,86	5806,00
1140,67	5683,00
1146,47	5590,00
1152,26	5733,00
1158,05	5494,00
1163,83	5609,00
1169,60	5573,00
1175,37	5524,00
1181,13	5469,00
1186,89	5497,00
1192,64	5557,00
1198,38	5636,00
1204,12	5601,00
1209,85	5541,00
1215,58	5550,00
1221,30	5685,00
1227,02	5591,00
1232,72	5565,00
1238,43	5491,00
1244,12	5487,00
1249,81	5544,00
1255,50	5593,00
1261,17	5563,00
1266,85	5517,00
1272,51	5539,00
1278,17	5699,00
1283,83	5621,00
1289,47	5890,00
1295,12	6075,00
1300,75	5888,00
1306,38	5880,00
1312,01	5618,00
1317,63	5567,00
1323,24	5582,00
1328,85	5575,00
1334,45	5460,00
1340,04	5618,00
1345,63	5564,00
1351,22	5565,00
1356,80	5671,00
1362,37	5777,00
1367,93	5631,00
1373,49	5693,00
1379,05	5584,00
1384,60	5623,00
1390,14	5623,00
1395,68	5626,00
1401,21	5700,00
1406,74	5661,00
1412,26	5780,00
1417,77	5942,00
1423,28	5740,00
1428,78	5881,00
1434,28	6032,00
1439,77	6001,00
1445,26	6095,00
1450,74	6174,00
1456,22	5957,00
1461,68	5859,00
1467,15	5880,00
1472,61	5667,00
1478,06	5652,00
1483,51	5575,00
1488,95	5490,00
1494,38	5448,00
1499,81	5241,00
1505,24	5286,00
1510,65	5277,00
1516,07	5201,00
1521,48	5223,00
1526,88	5230,00
1532,27	5189,00
1537,67	5019,00
1543,05	5160,00
1548,43	5073,00
1553,81	5189,00
1559,18	4964,00
1564,54	5064,00
1569,90	4956,00
1575,25	5011,00
1580,60	4851,00
1585,94	5034,00
1591,28	4974,00
1596,61	5067,00
1601,93	4946,00
1607,25	4891,00
1612,57	5003,00
1617,88	5033,00
1623,18	5011,00
1628,48	4921,00
1633,77	5009,00
1639,06	4900,00
1644,34	4840,00
1649,62	4633,00
1654,89	4749,00
1660,16	4737,00
1665,42	4713,00
1670,67	4765,00
1675,92	4590,00
1681,17	4643,00
1686,41	4699,00
1691,64	4612,00
1696,87	4708,00
1702,10	4593,00
1707,32	4621,00
1712,53	4523,00
1717,74	4612,00
1722,94	4635,00
1728,14	4387,00
1733,33	4434,00
1738,52	4440,00
1743,70	4401,00
1748,88	4360,00
1754,05	4416,00
1759,22	4229,00
1764,38	4377,00
1769,53	4373,00
1774,69	4280,00
1779,83	4224,00
1784,97	4193,00
1790,11	4213,00
1795,24	4163,00
1800,36	4149,00
1805,48	4194,00
1810,60	4170,00
1815,71	4176,00
1820,82	4108,00
1825,92	4249,00
1831,01	4146,00
1836,10	4186,00
1841,19	4157,00
1846,26	3980,00
1851,34	4090,00
1856,41	4034,00
1861,47	3980,00
1866,53	4128,00
1871,59	4137,00
1876,64	4086,00
1881,68	4040,00
1886,72	3976,00
1891,76	4018,00
1896,79	3915,00
1901,81	3803,00
1906,83	3915,00
1911,85	3875,00
1916,86	3721,00
1921,86	3714,00
1926,86	3721,00
1931,86	3791,00
1936,85	3648,00
1941,83	3609,00
1946,81	3653,00
1951,79	3544,00
1956,76	3601,00
1961,72	3560,00
1966,68	3604,00
1971,64	3616,00
1976,59	3568,00
1981,54	3527,00
1986,48	3599,00
1991,42	3518,00
1996,35	3603,00
2001,27	3518,00
2006,20	3331,00
2011,11	3524,00
2016,03	3494,00
2020,93	3391,00
2025,84	3513,00
2030,73	3418,00
2035,63	3224,00
2040,52	3390,00
2045,40	3346,00
2050,28	3302,00
2055,15	3398,00
2060,02	3291,00
2064,89	3303,00
2069,75	3303,00
2074,60	3215,00
2079,46	3229,00
2084,30	3197,00
2089,14	3247,00
2093,98	3329,00
2098,81	3296,00
2103,64	3254,00
2108,46	3197,00
2113,28	3234,00
2118,09	3320,00
2122,90	3245,00
2127,70	3158,00
2132,50	3243,00
2137,30	3164,00
2142,09	3022,00
2146,87	3088,00
2151,66	3022,00
2156,43	3092,00
2161,20	2995,00
2165,97	3155,00
2170,73	3080,00
2175,49	3091,00
2180,24	2933,00
2184,99	3101,00
2189,74	3052,00
2194,48	3103,00
2199,21	3013,00
2203,94	3002,00
2208,67	2792,00
2213,39	2951,00
2218,11	2934,00
2222,82	2862,00
2227,53	2959,00
2232,23	2845,00
2236,93	2919,00
2241,63	2740,00
2246,32	2997,00
2251,00	2767,00
2255,68	2825,00
2260,36	2793,00
2265,03	2847,00
2269,70	2812,00
2274,36	2724,00
2279,02	2782,00
2283,68	2805,00
2288,33	2767,00
2292,97	2749,00
2297,61	2638,00
2302,25	2709,00
2306,88	2660,00
2311,51	2698,00
2316,14	2646,00
2320,75	2626,00
2325,37	2632,00
2329,98	2645,00
2334,59	2682,00
2339,19	2646,00
2343,79	2469,00
2348,38	2561,00
2352,97	2528,00
2357,55	2537,00
2362,13	2532,00
2366,71	2472,00
2371,28	2501,00
2375,85	2487,00
2380,41	2485,00
2384,97	2398,00
2389,52	2327,00
2394,07	2392,00
2398,62	2365,00
2403,16	2396,00
2407,70	2185,00
2412,23	2296,00
2416,76	2442,00
2421,29	2366,00
2425,81	2454,00
2430,32	2403,00
2434,84	2293,00
2439,34	2201,00
2443,85	2396,00
2448,35	2219,00
2452,84	2247,00
2457,33	2228,00
2461,82	2186,00
2466,30	2134,00
2470,78	2314,00
2475,25	2276,00
2479,72	2223,00
2484,19	2181,00
2488,65	2154,00
2493,11	2118,00
2497,56	2239,00
2502,01	2026,00
2506,46	2091,00
2510,90	2078,00
2515,34	2043,00
2519,77	2072,00
2524,20	2091,00
2528,62	2125,00
2533,04	2019,00
2537,46	2085,00
2541,87	2070,00
2546,28	2085,00
2550,68	2043,00
2555,08	1997,00
2559,48	1985,00
2563,87	1861,00
2568,26	1894,00
2572,64	1986,00
2577,02	1898,00
2581,40	1858,00
2585,77	1904,00
2590,14	1778,00
2594,50	1775,00
2598,86	1840,00
2603,22	1806,00
2607,57	1749,00
2611,92	1789,00
2616,26	1837,00
2620,60	1839,00
2624,94	1742,00
2629,27	1723,00
2633,60	1762,00
2637,92	1778,00
2642,24	1789,00
2646,56	1665,00
2650,87	1620,00
2655,18	1780,00
2659,48	1589,00
2663,78	1633,00
2668,08	1673,00
2672,37	1703,00
2676,66	1687,00
2680,95	1645,00
2685,23	1718,00
2689,50	1589,00
2693,78	1642,00
2698,05	1614,00
2702,31	1598,00
2706,57	1757,00
2710,83	1745,00
2715,08	1799,00
2719,33	1645,00
2723,58	1669,00
2727,82	1737,00
2732,06	1713,00
2736,29	1585,00
2740,53	1574,00
2744,75	1539,00
2748,97	1563,00
2753,19	1631,00
2757,41	1544,00
2761,62	1545,00
2765,83	1587,00
2770,03	1516,00
2774,23	1536,00
2778,43	1416,00
2782,62	1548,00
2786,81	1559,00
2791,00	1579,00
2795,18	1505,00
2799,35	1461,00
2803,53	1512,00
2807,70	1499,00
2811,86	1488,00
2816,03	1644,00
2820,19	1521,00
2824,34	1428,00
2828,49	1522,00
2832,64	1568,00
2836,78	1609,00
2840,92	1756,00
2845,06	1886,00
2849,19	2011,00
2853,32	2084,00
2857,45	1978,00
2861,57	1932,00
2865,69	1979,00
2869,80	1859,00
2873,91	1923,00
2878,02	2009,00
2882,12	2029,00
2886,22	2028,00
2890,32	2006,00
2894,41	1888,00
2898,50	1928,00
2902,58	1841,00
2906,67	1727,00
2910,74	1720,00
2914,82	1679,00
2918,89	1658,00
2922,96	1534,00
2927,02	1491,00
2931,08	1544,00
2935,13	1437,00
2939,19	1386,00
2943,24	1375,00
2947,28	1489,00
2951,32	1263,00
2955,36	1136,00
2959,40	1405,00
2963,43	1231,00
2967,46	1259,00
2971,48	1207,00
2975,50	1220,00
2979,52	1161,00
2983,53	1165,00
2987,54	1137,00
2991,55	1120,00
2995,55	1156,00
2999,55	1069,00
3003,54	1105,00
3007,54	1167,00
3011,53	1142,00
3015,51	1028,00
3019,49	1047,00
3023,47	1007,00
3027,45	1067,00
3031,42	999,00
3035,39	959,00
3039,35	937,00
3043,31	1077,00
3047,27	1050,00
3051,22	994,00
3055,17	930,00
3059,12	965,00
3063,06	956,00
3067,00	949,00
3070,94	919,00
3074,87	1056,00
3078,80	938,00
3082,73	1009,00
3086,65	934,00
3090,57	892,00
3094,49	859,00
3098,40	925,00
3102,31	946,00
3106,22	957,00
3110,12	893,00
3114,02	812,00
3117,92	863,00
3121,81	902,00
3125,70	884,00
3129,58	852,00
3133,47	751,00
3137,34	934,00
3141,22	902,00
3145,09	900,00
3148,96	913,00
3152,83	912,00
3156,69	896,00
3160,55	808,00
3164,40	858,00
3168,26	778,00
3172,10	900,00
3175,95	836,00
3179,79	862,00
3183,63	853,00
3187,47	765,00
3191,30	919,00
3195,13	700,00
3198,95	743,00
3202,78	819,00
3206,60	704,00
3210,41	727,00
3214,23	733,00
3218,03	732,00
3221,84	728,00
3225,64	732,00
3229,44	667,00
3233,24	727,00
3237,03	755,00
3240,82	680,00
3244,61	705,00
3248,39	688,00
3252,17	772,00
3255,95	786,00
3259,72	645,00
3263,49	797,00
3267,26	690,00
3271,03	652,00
3274,79	727,00
3278,54	749,00
3282,30	623,00
3286,05	670,00
3289,80	689,00
3293,54	715,00
3297,29	686,00
3301,02	690,00
3304,76	597,00
3308,49	668,00
3312,22	631,00
3315,95	648,00
3319,67	563,00
3323,39	697,00
3327,10	657,00
3330,82	667,00
3334,53	706,00
3338,24	695,00
3341,94	590,00
3345,64	645,00
3349,34	630,00
3353,03	636,00
3356,72	627,00
3360,41	720,00
3364,10	563,00
3367,78	625,00
3371,46	624,00
3375,13	605,00
3378,81	588,00
3382,48	523,00
3386,14	668,00
3389,81	618,00
3393,47	572,00
3397,12	646,00
3400,78	579,00
3404,43	619,00
3408,08	609,00
3411,72	481,00
3415,36	516,00
3419,00	593,00
3422,64	520,00
3426,27	593,00
3429,90	560,00
3433,53	484,00
3437,15	568,00
3440,77	448,00
3444,39	535,00
3448,00	604,00
3451,62	438,00
3455,22	596,00
3458,83	454,00
3462,43	545,00
3466,03	686,00
3469,63	616,00
3473,22	481,00
3476,81	384,00
3480,40	692,00
3483,99	531,00
3487,57	524,00
3491,15	598,00
3494,72	559,00
3498,29	543,00
3501,86	508,00
3505,43	550,00
3508,99	447,00
3512,56	356,00
3516,11	514,00
3519,67	517,00
3523,22	504,00
3526,77	438,00
3530,32	580,00
3533,86	565,00
3537,40	596,00
3540,94	545,00
3544,47	434,00
3548,00	416,00
3551,53	528,00
3555,06	498,00
3558,58	562,00
3562,10	470,00
3565,62	449,00
3569,13	534,00
3572,64	580,00
3576,15	415,00
3579,66	472,00
3583,16	411,00
3586,66	439,00
3590,16	478,00
3593,65	445,00
3597,14	465,00
3600,63	429,00
3604,11	435,00
3607,60	371,00
3611,08	492,00
3614,55	462,00
3618,03	424,00
3621,50	440,00
3624,97	377,00
3628,43	391,00
3631,90	376,00
3635,36	403,00
3638,81	478,00
3642,27	355,00
3645,72	467,00
3649,17	317,00
3652,61	441,00
3656,06	379,00
3659,50	509,00
3662,93	400,00
3666,37	412,00
3669,80	562,00
3673,23	495,00
3676,65	378,00
3680,08	489,00
3683,50	419,00
3686,92	328,00
3690,33	437,00
3693,74	431,00
3697,15	325,00
3700,56	542,00
3703,96	474,00
3707,36	359,00
3710,76	385,00
3714,16	397,00
3717,55	389,00
3720,94	371,00
3724,33	456,00
3727,71	485,00
3731,10	420,00
3734,48	446,00
3737,85	346,00
3741,23	409,00
3744,60	371,00
3747,97	348,00
3751,33	573,00
3754,69	364,00
3758,05	365,00
3761,41	375,00
3764,77	327,00
3768,12	377,00
3771,47	299,00
3774,82	362,00
3778,16	0,00
3781,50	8,00
3784,84	4,00
3788,18	9,00
>>>>>End Processed Spectral Data<<<<<
