SpectraSuite Data File
++++++++++++++++++++++++++++++++++++
Date: Mon Jan 05 16:26:01 ICT 2026
User: Administrator
Dark Spectrum Present: Yes
Reference Spectrum Present: No
Number of Sampled Component Spectra: 1
Spectrometers: MAYP113682
Integration Time (usec): 3000000 (MAYP113682)
Spectra Averaged: 1 (MAYP113682)
Boxcar Smoothing: 0 (MAYP113682)
Correct for Electrical Dark: No (MAYP113682)
Strobe/Lamp Enabled: No (MAYP113682)
Correct for Detector Non-linearity: No (MAYP113682)
Correct for Stray Light: No (MAYP113682)
Number of Pixels in Processed Spectrum: 2068
>>>>>Begin Processed Spectral Data<<<<<
-37534,58	19,00
-37414,56	2,00
-37295,11	2,00
-37176,24	0,00
-37057,95	319,00
-36940,22	281,00
-36823,05	426,00
-36706,45	422,00
-36590,40	445,00
-36474,90	407,00
-36359,95	370,00
-36245,55	485,00
-36131,68	360,00
-36018,35	313,00
-35905,55	385,00
-35793,29	410,00
-35681,54	400,00
-35570,32	409,00
-35459,62	455,00
-35349,43	473,00
-35239,75	513,00
-35130,58	458,00
-35021,91	387,00
-34913,74	433,00
-34806,07	404,00
-34698,89	469,00
-34592,20	398,00
-34486,00	356,00
-34380,28	491,00
-34275,04	404,00
-34170,27	412,00
-34065,98	518,00
-33962,16	384,00
-33858,81	439,00
-33755,92	422,00
-33653,49	521,00
-33551,52	548,00
-33450,01	485,00
-33348,94	430,00
-33248,33	394,00
-33148,16	442,00
-33048,43	469,00
-32949,14	538,00
-32850,29	522,00
-32751,87	408,00
-32653,89	449,00
-32556,33	492,00
-32459,20	406,00
-32362,49	478,00
-32266,19	457,00
-32170,32	408,00
-32074,86	493,00
-31979,82	529,00
-31885,18	500,00
-31790,95	452,00
-31697,12	564,00
-31603,69	440,00
-31510,67	478,00
-31418,04	428,00
-31325,80	430,00
-31233,95	363,00
-31142,49	463,00
-31051,42	360,00
-30960,73	540,00
-30870,43	541,00
-30780,50	547,00
-30690,95	447,00
-30601,77	557,00
-30512,97	508,00
-30424,53	535,00
-30336,46	448,00
-30248,76	429,00
-30161,42	495,00
-30074,44	408,00
-29987,81	407,00
-29901,55	602,00
-29815,63	453,00
-29730,07	464,00
-29644,86	448,00
-29560,00	513,00
-29475,48	590,00
-29391,30	494,00
-29307,47	538,00
-29223,97	480,00
-29140,81	492,00
-29057,99	524,00
-28975,50	414,00
-28893,34	614,00
-28811,51	417,00
-28730,00	471,00
-28648,82	498,00
-28567,97	453,00
-28487,43	454,00
-28407,21	505,00
-28327,32	364,00
-28247,73	603,00
-28168,46	433,00
-28089,50	459,00
-28010,85	424,00
-27932,51	436,00
-27854,48	493,00
-27776,75	390,00
-27699,32	478,00
-27622,19	476,00
-27545,37	507,00
-27468,84	531,00
-27392,60	489,00
-27316,66	488,00
-27241,01	431,00
-27165,66	479,00
-27090,59	381,00
-27015,81	577,00
-26941,31	505,00
-26867,10	398,00
-26793,17	469,00
-26719,52	513,00
-26646,15	402,00
-26573,06	402,00
-26500,24	394,00
-26427,70	514,00
-26355,43	443,00
-26283,43	452,00
-26211,71	454,00
-26140,25	435,00
-26069,06	518,00
-25998,13	372,00
-25927,46	390,00
-25857,06	430,00
-25786,92	497,00
-25717,04	442,00
-25647,42	499,00
-25578,05	421,00
-25508,94	434,00
-25440,09	489,00
-25371,48	452,00
-25303,13	583,00
-25235,02	417,00
-25167,17	416,00
-25099,56	463,00
-25032,19	463,00
-24965,07	379,00
-24898,20	437,00
-24831,56	398,00
-24765,17	436,00
-24699,01	360,00
-24633,10	452,00
-24567,41	436,00
-24501,97	396,00
-24436,75	429,00
-24371,77	442,00
-24307,03	512,00
-24242,51	494,00
-24178,22	409,00
-24114,16	478,00
-24050,32	416,00
-23986,71	485,00
-23923,32	443,00
-23860,16	460,00
-23797,22	513,00
-23734,50	441,00
-23672,00	356,00
-23609,71	470,00
-23547,65	487,00
-23485,80	525,00
-23424,16	391,00
-23362,74	580,00
-23301,53	417,00
-23240,54	285,00
-23179,75	424,00
-23119,17	451,00
-23058,80	399,00
-22998,64	553,00
-22938,68	464,00
-22878,93	489,00
-22819,39	261,00
-22760,04	445,00
-22700,90	447,00
-22641,96	448,00
-22583,22	449,00
-22524,68	490,00
-22466,33	415,00
-22408,19	444,00
-22350,23	349,00
-22292,48	429,00
-22234,92	460,00
-22177,55	492,00
-22120,37	587,00
-22063,38	419,00
-22006,58	441,00
-21949,98	480,00
-21893,56	334,00
-21837,33	462,00
-21781,28	409,00
-21725,42	508,00
-21669,74	531,00
-21614,25	506,00
-21558,94	518,00
-21503,81	514,00
-21448,86	507,00
-21394,10	458,00
-21339,51	468,00
-21285,10	394,00
-21230,86	447,00
-21176,81	479,00
-21122,93	396,00
-21069,22	341,00
-21015,69	469,00
-20962,33	516,00
-20909,14	401,00
-20856,13	406,00
-20803,28	515,00
-20750,61	407,00
-20698,10	340,00
-20645,76	415,00
-20593,59	532,00
-20541,59	474,00
-20489,75	465,00
-20438,07	405,00
-20386,56	544,00
-20335,22	438,00
-20284,03	419,00
-20233,01	423,00
-20182,15	382,00
-20131,45	486,00
-20080,91	339,00
-20030,52	518,00
-19980,30	418,00
-19930,23	458,00
-19880,32	504,00
-19830,56	441,00
-19780,96	482,00
-19731,52	395,00
-19682,23	506,00
-19633,09	423,00
-19584,10	415,00
-19535,26	453,00
-19486,58	558,00
-19438,04	455,00
-19389,66	500,00
-19341,42	410,00
-19293,33	427,00
-19245,39	502,00
-19197,60	536,00
-19149,95	529,00
-19102,45	453,00
-19055,09	350,00
-19007,87	462,00
-18960,80	443,00
-18913,87	396,00
-18867,09	483,00
-18820,44	604,00
-18773,94	430,00
-18727,57	469,00
-18681,35	348,00
-18635,26	455,00
-18589,31	368,00
-18543,50	467,00
-18497,83	420,00
-18452,29	472,00
-18406,89	414,00
-18361,63	499,00
-18316,50	485,00
-18271,50	423,00
-18226,63	487,00
-18181,90	463,00
-18137,30	473,00
-18092,84	510,00
-18048,50	483,00
-18004,29	488,00
-17960,22	405,00
-17916,27	455,00
-17872,45	488,00
-17828,76	462,00
-17785,20	430,00
-17741,77	435,00
-17698,46	514,00
-17655,28	453,00
-17612,22	461,00
-17569,29	376,00
-17526,48	427,00
-17483,79	485,00
-17441,23	444,00
-17398,79	484,00
-17356,48	387,00
-17314,28	496,00
-17272,21	449,00
-17230,26	506,00
-17188,42	425,00
-17146,71	428,00
-17105,12	441,00
-17063,64	434,00
-17022,28	387,00
-16981,04	401,00
-16939,92	429,00
-16898,91	570,00
-16858,02	347,00
-16817,25	424,00
-16776,59	465,00
-16736,04	420,00
-16695,61	465,00
-16655,29	411,00
-16615,09	408,00
-16574,99	499,00
-16535,01	452,00
-16495,15	490,00
-16455,39	438,00
-16415,74	420,00
-16376,21	452,00
-16336,78	410,00
-16297,46	435,00
-16258,26	403,00
-16219,16	447,00
-16180,17	480,00
-16141,28	495,00
-16102,51	494,00
-16063,84	460,00
-16025,27	454,00
-15986,82	367,00
-15948,46	427,00
-15910,22	473,00
-15872,07	416,00
-15834,04	483,00
-15796,10	472,00
-15758,27	586,00
-15720,54	495,00
-15682,91	437,00
-15645,39	605,00
-15607,97	496,00
-15570,64	417,00
-15533,42	481,00
-15496,30	435,00
-15459,28	485,00
-15422,36	455,00
-15385,54	505,00
-15348,82	428,00
-15312,19	567,00
-15275,66	415,00
-15239,23	484,00
-15202,90	436,00
-15166,67	501,00
-15130,53	564,00
-15094,48	457,00
-15058,54	395,00
-15022,68	430,00
-14986,93	455,00
-14951,26	505,00
-14915,69	526,00
-14880,22	390,00
-14844,84	429,00
-14809,55	475,00
-14774,35	415,00
-14739,25	404,00
-14704,24	488,00
-14669,32	413,00
-14634,49	387,00
-14599,75	464,00
-14565,10	442,00
-14530,55	487,00
-14496,08	434,00
-14461,70	494,00
-14427,41	451,00
-14393,21	392,00
-14359,10	421,00
-14325,07	449,00
-14291,14	407,00
-14257,29	496,00
-14223,52	486,00
-14189,85	557,00
-14156,26	383,00
-14122,76	421,00
-14089,34	475,00
-14056,01	492,00
-14022,76	388,00
-13989,60	493,00
-13956,52	496,00
-13923,53	419,00
-13890,62	414,00
-13857,79	410,00
-13825,05	425,00
-13792,39	421,00
-13759,81	442,00
-13727,31	341,00
-13694,90	446,00
-13662,57	470,00
-13630,31	503,00
-13598,14	445,00
-13566,05	489,00
-13534,05	360,00
-13502,12	432,00
-13470,27	404,00
-13438,50	465,00
-13406,80	393,00
-13375,19	459,00
-13343,66	454,00
-13312,20	496,00
-13280,83	404,00
-13249,53	479,00
-13218,30	360,00
-13187,16	444,00
-13156,09	602,00
-13125,10	459,00
-13094,18	483,00
-13063,34	441,00
-13032,58	412,00
-13001,89	416,00
-12971,28	443,00
-12940,74	441,00
-12910,27	535,00
-12879,88	561,00
-12849,57	547,00
-12819,33	466,00
-12789,16	505,00
-12759,06	477,00
-12729,04	414,00
-12699,09	175,00
-12669,21	416,00
-12639,41	496,00
-12609,68	457,00
-12580,02	430,00
-12550,43	550,00
-12520,91	422,00
-12491,46	397,00
-12462,08	410,00
-12432,77	535,00
-12403,54	363,00
-12374,37	396,00
-12345,27	524,00
-12316,24	427,00
-12287,29	492,00
-12258,40	416,00
-12229,57	517,00
-12200,82	384,00
-12172,14	451,00
-12143,52	369,00
-12114,97	394,00
-12086,49	471,00
-12058,07	486,00
-12029,73	388,00
-12001,44	521,00
-11973,23	430,00
-11945,08	415,00
-11917,00	495,00
-11888,98	395,00
-11861,03	614,00
-11833,15	555,00
-11805,32	524,00
-11777,57	496,00
-11749,88	442,00
-11722,25	423,00
-11694,69	421,00
-11667,19	499,00
-11639,75	555,00
-11612,38	398,00
-11585,07	359,00
-11557,83	453,00
-11530,65	442,00
-11503,53	377,00
-11476,47	432,00
-11449,48	415,00
-11422,54	525,00
-11395,67	473,00
-11368,86	551,00
-11342,11	350,00
-11315,43	481,00
-11288,80	487,00
-11262,23	381,00
-11235,73	473,00
-11209,28	595,00
-11182,90	438,00
-11156,57	429,00
-11130,31	506,00
-11104,10	400,00
-11077,96	519,00
-11051,87	399,00
-11025,84	392,00
-10999,87	397,00
-10973,96	479,00
-10948,11	445,00
-10922,31	533,00
-10896,58	475,00
-10870,90	495,00
-10845,28	503,00
-10819,71	350,00
-10794,20	528,00
-10768,75	465,00
-10743,36	481,00
-10718,02	488,00
-10692,74	470,00
-10667,52	438,00
-10642,35	576,00
-10617,24	466,00
-10592,18	473,00
-10567,18	508,00
-10542,23	482,00
-10517,34	438,00
-10492,51	552,00
-10467,72	504,00
-10443,00	545,00
-10418,32	541,00
-10393,70	563,00
-10369,14	557,00
-10344,63	452,00
-10320,17	624,00
-10295,77	566,00
-10271,42	521,00
-10247,12	562,00
-10222,88	646,00
-10198,68	510,00
-10174,54	643,00
-10150,46	662,00
-10126,42	729,00
-10102,44	541,00
-10078,51	598,00
-10054,63	769,00
-10030,80	645,00
-10007,03	701,00
-9983,30	634,00
-9959,63	754,00
-9936,01	783,00
-9912,44	728,00
-9888,92	729,00
-9865,44	755,00
-9842,02	675,00
-9818,65	828,00
-9795,33	743,00
-9772,06	811,00
-9748,84	837,00
-9725,67	888,00
-9702,55	961,00
-9679,47	1051,00
-9656,45	1149,00
-9633,47	1064,00
-9610,55	1116,00
-9587,67	1326,00
-9564,84	1380,00
-9542,06	1380,00
-9519,32	1526,00
-9496,64	1754,00
-9474,00	1724,00
-9451,41	1744,00
-9428,87	1833,00
-9406,37	1810,00
-9383,92	1668,00
-9361,52	1650,00
-9339,17	1902,00
-9316,86	2066,00
-9294,60	2250,00
-9272,38	2657,00
-9250,21	2800,00
-9228,09	2936,00
-9206,01	2901,00
-9183,98	2710,00
-9162,00	2418,00
-9140,06	2466,00
-9118,16	2346,00
-9096,31	2603,00
-9074,51	2551,00
-9052,75	2837,00
-9031,04	2704,00
-9009,37	2499,00
-8987,74	2333,00
-8966,16	1972,00
-8944,63	1798,00
-8923,14	1796,00
-8901,69	1809,00
-8880,29	1862,00
-8858,93	2236,00
-8837,61	2448,00
-8816,34	2605,00
-8795,11	2582,00
-8773,92	2317,00
-8752,78	2122,00
-8731,68	1964,00
-8710,62	2098,00
-8689,61	1995,00
-8668,63	2100,00
-8647,70	2464,00
-8626,82	2404,00
-8605,97	2359,00
-8585,17	2270,00
-8564,41	1946,00
-8543,69	1868,00
-8523,01	1789,00
-8502,37	1911,00
-8481,78	2014,00
-8461,23	1996,00
-8440,71	2329,00
-8420,24	2336,00
-8399,81	2549,00
-8379,42	2442,00
-8359,08	2263,00
-8338,77	2052,00
-8318,50	1803,00
-8298,27	1840,00
-8278,09	1881,00
-8257,94	2131,00
-8237,83	2311,00
-8217,76	2333,00
-8197,74	2258,00
-8177,75	2229,00
-8157,80	2084,00
-8137,89	1898,00
-8118,02	1784,00
-8098,19	1872,00
-8078,40	1938,00
-8058,65	1882,00
-8038,93	1960,00
-8019,26	1863,00
-7999,62	1972,00
-7980,02	1781,00
-7960,46	1757,00
-7940,94	1600,00
-7921,46	1530,00
-7902,01	1586,00
-7882,60	1696,00
-7863,23	1660,00
-7843,90	1579,00
-7824,61	1695,00
-7805,35	1882,00
-7786,13	1848,00
-7766,95	1900,00
-7747,80	1768,00
-7728,69	1788,00
-7709,62	1649,00
-7690,59	1745,00
-7671,59	1858,00
-7652,63	1737,00
-7633,70	1838,00
-7614,81	1780,00
-7595,96	1634,00
-7577,15	1587,00
-7558,37	1536,00
-7539,62	1619,00
-7520,91	1610,00
-7502,24	1675,00
-7483,60	1845,00
-7465,00	1680,00
-7446,44	1566,00
-7427,91	1274,00
-7409,41	1264,00
-7390,95	1292,00
-7372,53	1127,00
-7354,14	1234,00
-7335,78	1171,00
-7317,46	1281,00
-7299,18	1188,00
-7280,92	1340,00
-7262,71	1581,00
-7244,52	1722,00
-7226,38	1634,00
-7208,26	1590,00
-7190,18	1592,00
-7172,14	1451,00
-7154,12	1530,00
-7136,15	1451,00
-7118,20	1506,00
-7100,29	1589,00
-7082,41	1650,00
-7064,57	1520,00
-7046,76	1447,00
-7028,98	1299,00
-7011,24	1227,00
-6993,53	1064,00
-6975,85	948,00
-6958,20	909,00
-6940,59	865,00
-6923,01	858,00
-6905,46	1089,00
-6887,94	1144,00
-6870,46	-791,00
-6853,01	1497,00
-6835,59	1421,00
-6818,21	1365,00
-6800,85	1157,00
-6783,53	1028,00
-6766,24	845,00
-6748,98	863,00
-6731,76	759,00
-6714,56	755,00
-6697,40	738,00
-6680,26	779,00
-6663,16	852,00
-6646,09	1008,00
-6629,05	1160,00
-6612,05	1230,00
-6595,07	1062,00
-6578,13	1146,00
-6561,21	1012,00
-6544,33	967,00
-6527,47	632,00
-6510,65	722,00
-6493,86	612,00
-6477,10	639,00
-6460,36	756,00
-6443,66	656,00
-6426,99	712,00
-6410,35	652,00
-6393,74	777,00
-6377,16	742,00
-6360,61	844,00
-6344,09	749,00
-6327,59	883,00
-6311,13	978,00
-6294,70	945,00
-6278,29	1043,00
-6261,92	1097,00
-6245,58	1201,00
-6229,26	1211,00
-6212,97	1194,00
-6196,72	904,00
-6180,49	828,00
-6164,29	581,00
-6148,12	700,00
-6131,98	544,00
-6115,86	437,00
-6099,78	588,00
-6083,72	477,00
-6067,69	432,00
-6051,69	538,00
-6035,72	633,00
-6019,78	605,00
-6003,87	775,00
-5987,98	843,00
-5972,12	936,00
-5956,29	913,00
-5940,49	803,00
-5924,71	865,00
-5908,96	703,00
-5893,24	631,00
-5877,55	635,00
-5861,89	629,00
-5846,25	522,00
-5830,64	653,00
-5815,05	614,00
-5799,50	586,00
-5783,97	642,00
-5768,47	656,00
-5752,99	858,00
-5737,55	784,00
-5722,12	775,00
-5706,73	911,00
-5691,36	851,00
-5676,02	662,00
-5660,71	585,00
-5645,42	599,00
-5630,16	629,00
-5614,92	828,00
-5599,71	714,00
-5584,53	775,00
-5569,37	689,00
-5554,24	1599,00
-5539,14	621,00
-5524,06	720,00
-5509,01	637,00
-5493,98	637,00
-5478,98	712,00
-5464,00	583,00
-5449,05	619,00
-5434,13	737,00
-5419,23	560,00
-5404,36	532,00
-5389,51	718,00
-5374,69	835,00
-5359,89	1013,00
-5345,12	1107,00
-5330,37	954,00
-5315,65	856,00
-5300,95	805,00
-5286,28	725,00
-5271,63	586,00
-5257,01	680,00
-5242,41	677,00
-5227,84	512,00
-5213,29	631,00
-5198,76	522,00
-5184,26	567,00
-5169,79	549,00
-5155,33	627,00
-5140,91	638,00
-5126,51	631,00
-5112,13	749,00
-5097,77	664,00
-5083,44	666,00
-5069,13	522,00
-5054,85	635,00
-5040,59	656,00
-5026,36	711,00
-5012,15	791,00
-4997,96	697,00
-4983,80	641,00
-4969,66	561,00
-4955,54	598,00
-4941,44	751,00
-4927,37	749,00
-4913,33	973,00
-4899,30	903,00
-4885,30	976,00
-4871,33	741,00
-4857,37	613,00
-4843,44	514,00
-4829,53	617,00
-4815,65	627,00
-4801,79	576,00
-4787,95	711,00
-4774,13	598,00
-4760,34	490,00
-4746,56	558,00
-4732,82	499,00
-4719,09	683,00
-4705,38	887,00
-4691,70	898,00
-4678,04	1008,00
-4664,41	891,00
-4650,79	703,00
-4637,20	514,00
-4623,63	542,00
-4610,08	797,00
-4596,56	743,00
-4583,05	769,00
-4569,57	583,00
-4556,11	572,00
-4542,67	563,00
-4529,25	487,00
-4515,86	672,00
-4502,49	797,00
-4489,13	854,00
-4475,80	919,00
-4462,49	631,00
-4449,21	640,00
-4435,94	591,00
-4422,70	583,00
-4409,47	689,00
-4396,27	684,00
-4383,09	543,00
-4369,93	519,00
-4356,79	436,00
-4343,67	587,00
-4330,58	650,00
-4317,50	716,00
-4304,45	734,00
-4291,41	647,00
-4278,40	569,00
-4265,41	452,00
-4252,44	619,00
-4239,49	618,00
-4226,55	666,00
-4213,65	601,00
-4200,76	593,00
-4187,89	538,00
-4175,04	440,00
-4162,21	420,00
-4149,40	531,00
-4136,61	526,00
-4123,85	474,00
-4111,10	427,00
-4098,37	587,00
-4085,66	463,00
-4072,98	497,00
-4060,31	489,00
-4047,66	629,00
-4035,04	659,00
-4022,43	478,00
-4009,84	456,00
-3997,27	313,00
-3984,72	492,00
-3972,19	483,00
-3959,69	496,00
-3947,20	466,00
-3934,73	503,00
-3922,27	394,00
-3909,84	365,00
-3897,43	557,00
-3885,04	512,00
-3872,67	446,00
-3860,31	451,00
-3847,98	510,00
-3835,66	417,00
-3823,36	431,00
-3811,09	454,00
-3798,83	434,00
-3786,59	420,00
-3774,37	497,00
-3762,17	396,00
-3749,98	499,00
-3737,82	462,00
-3725,67	541,00
-3713,55	442,00
-3701,44	538,00
-3689,35	450,00
-3677,28	532,00
-3665,22	429,00
-3653,19	462,00
-3641,17	500,00
-3629,18	471,00
-3617,20	435,00
-3605,24	475,00
-3593,30	492,00
-3581,37	537,00
-3569,47	462,00
-3557,58	485,00
-3545,71	555,00
-3533,86	512,00
-3522,02	459,00
-3510,21	514,00
-3498,41	435,00
-3486,63	507,00
-3474,87	458,00
-3463,12	464,00
-3451,40	409,00
-3439,69	486,00
-3428,00	403,00
-3416,33	545,00
-3404,67	406,00
-3393,03	358,00
-3381,41	517,00
-3369,81	525,00
-3358,22	508,00
-3346,66	573,00
-3335,10	513,00
-3323,57	421,00
-3312,06	472,00
-3300,56	441,00
-3289,08	461,00
-3277,61	407,00
-3266,16	512,00
-3254,73	423,00
-3243,32	472,00
-3231,92	388,00
-3220,55	552,00
-3209,18	501,00
-3197,84	458,00
-3186,51	431,00
-3175,20	385,00
-3163,90	443,00
-3152,63	529,00
-3141,36	398,00
-3130,12	459,00
-3118,89	553,00
-3107,68	391,00
-3096,49	471,00
-3085,31	436,00
-3074,15	458,00
-3063,00	454,00
-3051,87	472,00
-3040,76	371,00
-3029,67	574,00
-3018,59	617,00
-3007,52	581,00
-2996,48	465,00
-2985,44	465,00
-2974,43	470,00
-2963,43	452,00
-2952,45	487,00
-2941,48	423,00
-2930,53	471,00
-2919,60	363,00
-2908,68	409,00
-2897,78	412,00
-2886,89	573,00
-2876,02	504,00
-2865,17	340,00
-2854,33	495,00
-2843,50	506,00
-2832,70	421,00
-2821,90	483,00
-2811,13	529,00
-2800,37	477,00
-2789,62	363,00
-2778,89	570,00
-2768,18	405,00
-2757,48	498,00
-2746,80	504,00
-2736,13	440,00
-2725,48	490,00
-2714,84	370,00
-2704,22	440,00
-2693,61	482,00
-2683,02	498,00
-2672,45	482,00
-2661,89	474,00
-2651,34	440,00
-2640,81	534,00
-2630,30	594,00
-2619,80	537,00
-2609,31	529,00
-2598,84	488,00
-2588,39	504,00
-2577,95	521,00
-2567,52	410,00
-2557,11	360,00
-2546,71	393,00
-2536,33	491,00
-2525,97	484,00
-2515,62	439,00
-2505,28	548,00
-2494,96	436,00
-2484,65	534,00
-2474,36	620,00
-2464,08	370,00
-2453,82	556,00
-2443,57	453,00
-2433,33	476,00
-2423,11	478,00
-2412,91	462,00
-2402,72	502,00
-2392,54	474,00
-2382,38	478,00
-2372,23	524,00
-2362,09	1109,00
-2351,97	498,00
-2341,87	402,00
-2331,78	421,00
-2321,70	567,00
-2311,64	443,00
-2301,59	518,00
-2291,55	400,00
-2281,53	499,00
-2271,53	408,00
-2261,53	540,00
-2251,55	458,00
-2241,59	465,00
-2231,64	455,00
-2221,70	496,00
-2211,78	483,00
-2201,87	436,00
-2191,97	484,00
-2182,09	448,00
-2172,22	476,00
-2162,37	423,00
-2152,53	346,00
-2142,70	493,00
-2132,89	488,00
-2123,09	511,00
-2113,30	504,00
-2103,53	440,00
-2093,77	504,00
-2084,02	468,00
-2074,29	451,00
-2064,57	435,00
-2054,86	441,00
-2045,17	534,00
-2035,49	552,00
-2025,82	409,00
-2016,17	428,00
-2006,53	480,00
-1996,91	543,00
-1987,29	464,00
-1977,69	447,00
-1968,11	451,00
-1958,53	411,00
-1948,97	442,00
-1939,42	405,00
-1929,89	475,00
-1920,37	453,00
-1910,86	416,00
-1901,36	453,00
-1891,88	432,00
-1882,41	505,00
-1872,95	488,00
-1863,51	636,00
-1854,08	525,00
-1844,66	532,00
-1835,26	529,00
-1825,86	503,00
-1816,48	383,00
-1807,11	497,00
-1797,76	472,00
-1788,42	496,00
-1779,09	443,00
-1769,77	545,00
-1760,47	574,00
-1751,17	363,00
-1741,89	456,00
-1732,63	529,00
-1723,37	469,00
-1714,13	503,00
-1704,90	435,00
-1695,68	434,00
-1686,48	399,00
-1677,29	450,00
-1668,11	630,00
-1658,94	400,00
-1649,78	397,00
-1640,64	506,00
-1631,51	384,00
-1622,39	528,00
-1613,28	506,00
-1604,19	596,00
-1595,10	566,00
-1586,03	489,00
-1576,97	447,00
-1567,93	495,00
-1558,89	509,00
-1549,87	534,00
-1540,86	431,00
-1531,86	445,00
-1522,87	445,00
-1513,90	520,00
-1504,93	481,00
-1495,98	522,00
-1487,04	504,00
-1478,12	428,00
-1469,20	460,00
-1460,30	434,00
-1451,40	553,00
-1442,52	696,00
-1433,65	558,00
-1424,80	501,00
-1415,95	372,00
-1407,12	608,00
-1398,30	469,00
-1389,48	510,00
-1380,69	381,00
-1371,90	426,00
-1363,12	481,00
-1354,36	562,00
-1345,60	491,00
-1336,86	495,00
-1328,13	557,00
-1319,41	527,00
-1310,70	449,00
-1302,01	433,00
-1293,32	444,00
-1284,65	500,00
-1275,99	549,00
-1267,33	623,00
-1258,69	557,00
-1250,06	475,00
-1241,45	375,00
-1232,84	591,00
-1224,25	434,00
-1215,66	509,00
-1207,09	440,00
-1198,53	482,00
-1189,97	477,00
-1181,43	489,00
-1172,91	424,00
-1164,39	476,00
-1155,88	390,00
-1147,38	408,00
-1138,90	439,00
-1130,43	414,00
-1121,96	551,00
-1113,51	456,00
-1105,07	443,00
-1096,64	564,00
-1088,22	545,00
-1079,81	524,00
-1071,41	517,00
-1063,02	472,00
-1054,65	469,00
-1046,28	512,00
-1037,92	461,00
-1029,58	450,00
-1021,24	491,00
-1012,92	649,00
-1004,61	486,00
-996,30	541,00
-988,01	400,00
-979,73	428,00
-971,46	572,00
-963,20	438,00
-954,95	376,00
-946,71	488,00
-938,48	551,00
-930,26	457,00
-922,06	453,00
-913,86	460,00
-905,67	507,00
-897,49	541,00
-889,33	374,00
-881,17	591,00
-873,02	446,00
-864,89	427,00
-856,76	415,00
-848,65	480,00
-840,54	541,00
-832,45	481,00
-824,36	433,00
-816,29	484,00
-808,22	501,00
-800,17	533,00
-792,12	495,00
-784,09	468,00
-776,06	390,00
-768,05	513,00
-760,04	514,00
-752,05	483,00
-744,07	431,00
-736,09	519,00
-728,13	290,00
-720,17	529,00
-712,23	503,00
-704,29	412,00
-696,37	475,00
-688,45	645,00
-680,55	452,00
-672,65	448,00
-664,77	473,00
-656,89	456,00
-649,03	458,00
-641,17	589,00
-633,32	474,00
-625,49	544,00
-617,66	420,00
-609,84	580,00
-602,03	387,00
-594,23	490,00
-586,45	485,00
-578,67	475,00
-570,90	516,00
-563,14	429,00
-555,39	568,00
-547,65	419,00
-539,91	508,00
-532,19	515,00
-524,48	458,00
-516,78	393,00
-509,08	519,00
-501,40	472,00
-493,72	520,00
-486,06	422,00
-478,40	556,00
-470,76	365,00
-463,12	412,00
-455,49	406,00
-447,87	450,00
-440,26	533,00
-432,66	407,00
-425,07	545,00
-417,49	519,00
-409,92	391,00
-402,35	440,00
-394,80	423,00
-387,25	457,00
-379,72	456,00
-372,19	485,00
-364,67	515,00
-357,17	475,00
-349,67	512,00
-342,18	437,00
-334,69	510,00
-327,22	428,00
-319,76	544,00
-312,30	527,00
-304,86	432,00
-297,42	467,00
-290,00	471,00
-282,58	519,00
-275,17	583,00
-267,77	583,00
-260,37	537,00
-252,99	605,00
-245,62	582,00
-238,25	524,00
-230,90	497,00
-223,55	594,00
-216,21	551,00
-208,88	734,00
-201,56	588,00
-194,25	620,00
-186,94	557,00
-179,65	592,00
-172,36	661,00
-165,08	732,00
-157,81	827,00
-150,55	732,00
-143,30	782,00
-136,06	752,00
-128,82	836,00
-121,60	868,00
-114,38	961,00
-107,17	1056,00
-99,97	1198,00
-92,78	1150,00
-85,60	1270,00
-78,42	1428,00
-71,25	1472,00
-64,10	1736,00
-56,95	1930,00
-49,81	2212,00
-42,67	2806,00
-35,55	3266,00
-28,43	4243,00
-21,33	6586,00
-14,23	20585,00
-7,14	57498,00
-0,05	57284,00
7,02	57012,00
14,09	57319,00
21,14	18192,00
28,19	7883,00
35,23	5179,00
42,27	4225,00
49,29	3424,00
56,31	2975,00
63,32	2614,00
70,32	2282,00
77,31	1981,00
84,29	1858,00
91,27	1679,00
98,23	1602,00
105,19	1578,00
112,14	1860,00
119,09	3188,00
126,02	5383,00
132,95	6644,00
139,87	7140,00
146,78	7343,00
153,68	7326,00
160,58	7320,00
167,46	7150,00
174,34	7370,00
181,21	7273,00
188,08	7237,00
194,93	7248,00
201,78	7349,00
208,62	7266,00
215,45	7427,00
222,27	7357,00
229,09	7455,00
235,90	7316,00
242,70	7452,00
249,49	7322,00
256,27	7290,00
263,05	7238,00
269,82	7336,00
276,58	7308,00
283,33	7314,00
290,08	7143,00
296,82	7107,00
303,55	7071,00
310,27	6990,00
316,98	7028,00
323,69	7112,00
330,39	6993,00
337,08	6957,00
343,76	7140,00
350,44	7102,00
357,11	7045,00
363,77	6928,00
370,42	6965,00
377,07	7033,00
383,71	6967,00
390,34	6878,00
396,96	7047,00
403,58	7101,00
410,19	7166,00
416,79	7021,00
423,38	7066,00
429,97	6905,00
436,55	6836,00
443,12	6878,00
449,68	6747,00
456,24	6790,00
462,79	6682,00
469,33	6698,00
475,86	6707,00
482,39	6591,00
488,91	6602,00
495,42	6585,00
501,93	6524,00
508,42	6416,00
514,91	6472,00
521,40	6403,00
527,87	6454,00
534,34	6370,00
540,80	6360,00
547,25	6450,00
553,70	6379,00
560,14	6460,00
566,57	6433,00
573,00	6407,00
579,41	6440,00
585,83	6320,00
592,23	6302,00
598,62	6359,00
605,01	6273,00
611,40	6331,00
617,77	6304,00
624,14	6172,00
630,50	6154,00
636,85	6236,00
643,20	6102,00
649,54	6143,00
655,87	6166,00
662,20	6091,00
668,52	5964,00
674,83	6028,00
681,13	5978,00
687,43	6121,00
693,72	5825,00
700,00	5831,00
706,28	5870,00
712,55	5863,00
718,81	5969,00
725,07	5889,00
731,32	5944,00
737,56	5944,00
743,79	5830,00
750,02	5999,00
756,24	5797,00
762,46	5746,00
768,67	5906,00
774,87	5854,00
781,06	5842,00
787,25	5817,00
793,43	5794,00
799,60	5746,00
805,77	5898,00
811,93	5707,00
818,08	5734,00
824,23	5742,00
830,37	5775,00
836,50	5766,00
842,63	5702,00
848,75	5656,00
854,87	5574,00
860,97	5768,00
867,07	5536,00
873,17	5589,00
879,25	5589,00
885,33	5532,00
891,41	5591,00
897,47	5512,00
903,53	5517,00
909,59	5495,00
915,63	5393,00
921,67	5506,00
927,71	5367,00
933,74	5358,00
939,76	5276,00
945,77	5408,00
951,78	5495,00
957,78	5350,00
963,78	5376,00
969,77	5332,00
975,75	5326,00
981,72	5218,00
987,69	6163,00
993,66	5423,00
999,61	5401,00
1005,56	5397,00
1011,51	5308,00
1017,44	5384,00
1023,37	5393,00
1029,30	5276,00
1035,22	5361,00
1041,13	5331,00
1047,03	5383,00
1052,93	5290,00
1058,83	5574,00
1064,71	5698,00
1070,59	5494,00
1076,47	5384,00
1082,33	5297,00
1088,20	5332,00
1094,05	5237,00
1099,90	5043,00
1105,74	5133,00
1111,58	5250,00
1117,41	5177,00
1123,23	5379,00
1129,05	5494,00
1134,86	5478,00
1140,67	5380,00
1146,47	5200,00
1152,26	5248,00
1158,05	5142,00
1163,83	5087,00
1169,60	5159,00
1175,37	5276,00
1181,13	5184,00
1186,89	5033,00
1192,64	5109,00
1198,38	5337,00
1204,12	4999,00
1209,85	5113,00
1215,58	5151,00
1221,30	5219,00
1227,02	5083,00
1232,72	5120,00
1238,43	5094,00
1244,12	5013,00
1249,81	5157,00
1255,50	5187,00
1261,17	5070,00
1266,85	5177,00
1272,51	5196,00
1278,17	5115,00
1283,83	5239,00
1289,47	5467,00
1295,12	5642,00
1300,75	5521,00
1306,38	5408,00
1312,01	5317,00
1317,63	4997,00
1323,24	5161,00
1328,85	5014,00
1334,45	5080,00
1340,04	5101,00
1345,63	5089,00
1351,22	5224,00
1356,80	5121,00
1362,37	5258,00
1367,93	5219,00
1373,49	5286,00
1379,05	5200,00
1384,60	5163,00
1390,14	5118,00
1395,68	5206,00
1401,21	5241,00
1406,74	5171,00
1412,26	5352,00
1417,77	5471,00
1423,28	5353,00
1428,78	5505,00
1434,28	5676,00
1439,77	5684,00
1445,26	5702,00
1450,74	5640,00
1456,22	5537,00
1461,68	5584,00
1467,15	5431,00
1472,61	5231,00
1478,06	5226,00
1483,51	5127,00
1488,95	4922,00
1494,38	5067,00
1499,81	4994,00
1505,24	4900,00
1510,65	4919,00
1516,07	4841,00
1521,48	4854,00
1526,88	4713,00
1532,27	4702,00
1537,67	4782,00
1543,05	4756,00
1548,43	4668,00
1553,81	4816,00
1559,18	4568,00
1564,54	4712,00
1569,90	4607,00
1575,25	4578,00
1580,60	4540,00
1585,94	4627,00
1591,28	4579,00
1596,61	4602,00
1601,93	4774,00
1607,25	4528,00
1612,57	4518,00
1617,88	4499,00
1623,18	4588,00
1628,48	4379,00
1633,77	4381,00
1639,06	4476,00
1644,34	4398,00
1649,62	4423,00
1654,89	4389,00
1660,16	4291,00
1665,42	4438,00
1670,67	4401,00
1675,92	4187,00
1681,17	4282,00
1686,41	4230,00
1691,64	4311,00
1696,87	4293,00
1702,10	4190,00
1707,32	4234,00
1712,53	4146,00
1717,74	4129,00
1722,94	4143,00
1728,14	4148,00
1733,33	4158,00
1738,52	3909,00
1743,70	4063,00
1748,88	4031,00
1754,05	4075,00
1759,22	3989,00
1764,38	4051,00
1769,53	3967,00
1774,69	4056,00
1779,83	3916,00
1784,97	3917,00
1790,11	3870,00
1795,24	3842,00
1800,36	3848,00
1805,48	3849,00
1810,60	3830,00
1815,71	3818,00
1820,82	3675,00
1825,92	3910,00
1831,01	3741,00
1836,10	3788,00
1841,19	3790,00
1846,26	3627,00
1851,34	3725,00
1856,41	3732,00
1861,47	3754,00
1866,53	3788,00
1871,59	3657,00
1876,64	3691,00
1881,68	3650,00
1886,72	3526,00
1891,76	3572,00
1896,79	3549,00
1901,81	3428,00
1906,83	3582,00
1911,85	3440,00
1916,86	3415,00
1921,86	3409,00
1926,86	3376,00
1931,86	3493,00
1936,85	3399,00
1941,83	3344,00
1946,81	3197,00
1951,79	3208,00
1956,76	3284,00
1961,72	3173,00
1966,68	3284,00
1971,64	3258,00
1976,59	3241,00
1981,54	3203,00
1986,48	3227,00
1991,42	3073,00
1996,35	3322,00
2001,27	3065,00
2006,20	3100,00
2011,11	3248,00
2016,03	3112,00
2020,93	3033,00
2025,84	3098,00
2030,73	3072,00
2035,63	3032,00
2040,52	3131,00
2045,40	3099,00
2050,28	3085,00
2055,15	3033,00
2060,02	2937,00
2064,89	3025,00
2069,75	3032,00
2074,60	2957,00
2079,46	2871,00
2084,30	2949,00
2089,14	2914,00
2093,98	3060,00
2098,81	2982,00
2103,64	2971,00
2108,46	3012,00
2113,28	3013,00
2118,09	2988,00
2122,90	2872,00
2127,70	2897,00
2132,50	2875,00
2137,30	2805,00
2142,09	2812,00
2146,87	2793,00
2151,66	2852,00
2156,43	2700,00
2161,20	2808,00
2165,97	2931,00
2170,73	2747,00
2175,49	2783,00
2180,24	2716,00
2184,99	2872,00
2189,74	2775,00
2194,48	2714,00
2199,21	2701,00
2203,94	2682,00
2208,67	2586,00
2213,39	2603,00
2218,11	2731,00
2222,82	2655,00
2227,53	2705,00
2232,23	2650,00
2236,93	2621,00
2241,63	2553,00
2246,32	2680,00
2251,00	2531,00
2255,68	2574,00
2260,36	2514,00
2265,03	2637,00
2269,70	2521,00
2274,36	2534,00
2279,02	2651,00
2283,68	2491,00
2288,33	2504,00
2292,97	2540,00
2297,61	2479,00
2302,25	2502,00
2306,88	2383,00
2311,51	2403,00
2316,14	2467,00
2320,75	2351,00
2325,37	2344,00
2329,98	2426,00
2334,59	2375,00
2339,19	2293,00
2343,79	2253,00
2348,38	2430,00
2352,97	2259,00
2357,55	2313,00
2362,13	2301,00
2366,71	2211,00
2371,28	2348,00
2375,85	2255,00
2380,41	2270,00
2384,97	2272,00
2389,52	2247,00
2394,07	2207,00
2398,62	2169,00
2403,16	2265,00
2407,70	2125,00
2412,23	2085,00
2416,76	2198,00
2421,29	2163,00
2425,81	2184,00
2430,32	2260,00
2434,84	2085,00
2439,34	2060,00
2443,85	2208,00
2448,35	2077,00
2452,84	1983,00
2457,33	2014,00
2461,82	1921,00
2466,30	1919,00
2470,78	2036,00
2475,25	2018,00
2479,72	1946,00
2484,19	2063,00
2488,65	1966,00
2493,11	1981,00
2497,56	2066,00
2502,01	1893,00
2506,46	1894,00
2510,90	1958,00
2515,34	1922,00
2519,77	1939,00
2524,20	1872,00
2528,62	1931,00
2533,04	1940,00
2537,46	1748,00
2541,87	1816,00
2546,28	1815,00
2550,68	1944,00
2555,08	1834,00
2559,48	1843,00
2563,87	1788,00
2568,26	1704,00
2572,64	1829,00
2577,02	1771,00
2581,40	1690,00
2585,77	1764,00
2590,14	1649,00
2594,50	1697,00
2598,86	1672,00
2603,22	1707,00
2607,57	1622,00
2611,92	1556,00
2616,26	1744,00
2620,60	1658,00
2624,94	1661,00
2629,27	1601,00
2633,60	1525,00
2637,92	1692,00
2642,24	1648,00
2646,56	1479,00
2650,87	1523,00
2655,18	1749,00
2659,48	1536,00
2663,78	1589,00
2668,08	1475,00
2672,37	1624,00
2676,66	1630,00
2680,95	1509,00
2685,23	1609,00
2689,50	1509,00
2693,78	1602,00
2698,05	1479,00
2702,31	1459,00
2706,57	1618,00
2710,83	1552,00
2715,08	1626,00
2719,33	1666,00
2723,58	1663,00
2727,82	1621,00
2732,06	1518,00
2736,29	1552,00
2740,53	1488,00
2744,75	1462,00
2748,97	1500,00
2753,19	1447,00
2757,41	1533,00
2761,62	1441,00
2765,83	1523,00
2770,03	1527,00
2774,23	1544,00
2778,43	1352,00
2782,62	1444,00
2786,81	1483,00
2791,00	1449,00
2795,18	1348,00
2799,35	1447,00
2803,53	1449,00
2807,70	1407,00
2811,86	1362,00
2816,03	1468,00
2820,19	1399,00
2824,34	1405,00
2828,49	1603,00
2832,64	1557,00
2836,78	1697,00
2840,92	1733,00
2845,06	1895,00
2849,19	1991,00
2853,32	2073,00
2857,45	1859,00
2861,57	2035,00
2865,69	2010,00
2869,80	1911,00
2873,91	1900,00
2878,02	2035,00
2882,12	2010,00
2886,22	1983,00
2890,32	1971,00
2894,41	2035,00
2898,50	1929,00
2902,58	1837,00
2906,67	1733,00
2910,74	1698,00
2914,82	1674,00
2918,89	1696,00
2922,96	1529,00
2927,02	1415,00
2931,08	1468,00
2935,13	1359,00
2939,19	1432,00
2943,24	1326,00
2947,28	1449,00
2951,32	1237,00
2955,36	1221,00
2959,40	1411,00
2963,43	1226,00
2967,46	1196,00
2971,48	1133,00
2975,50	1181,00
2979,52	1224,00
2983,53	1157,00
2987,54	1110,00
2991,55	1106,00
2995,55	1076,00
2999,55	1063,00
3003,54	1052,00
3007,54	1125,00
3011,53	1079,00
3015,51	1059,00
3019,49	1036,00
3023,47	934,00
3027,45	1077,00
3031,42	953,00
3035,39	1033,00
3039,35	980,00
3043,31	1051,00
3047,27	959,00
3051,22	1030,00
3055,17	969,00
3059,12	992,00
3063,06	1043,00
3067,00	920,00
3070,94	933,00
3074,87	961,00
3078,80	905,00
3082,73	948,00
3086,65	813,00
3090,57	911,00
3094,49	879,00
3098,40	878,00
3102,31	876,00
3106,22	872,00
3110,12	873,00
3114,02	707,00
3117,92	793,00
3121,81	853,00
3125,70	733,00
3129,58	823,00
3133,47	753,00
3137,34	825,00
3141,22	943,00
3145,09	870,00
3148,96	877,00
3152,83	890,00
3156,69	891,00
3160,55	781,00
3164,40	868,00
3168,26	848,00
3172,10	905,00
3175,95	733,00
3179,79	847,00
3183,63	827,00
3187,47	715,00
3191,30	809,00
3195,13	799,00
3198,95	696,00
3202,78	801,00
3206,60	787,00
3210,41	712,00
3214,23	696,00
3218,03	761,00
3221,84	740,00
3225,64	709,00
3229,44	753,00
3233,24	756,00
3237,03	769,00
3240,82	758,00
3244,61	667,00
3248,39	695,00
3252,17	732,00
3255,95	748,00
3259,72	713,00
3263,49	790,00
3267,26	718,00
3271,03	730,00
3274,79	666,00
3278,54	757,00
3282,30	602,00
3286,05	753,00
3289,80	702,00
3293,54	691,00
3297,29	722,00
3301,02	663,00
3304,76	662,00
3308,49	722,00
3312,22	639,00
3315,95	682,00
3319,67	599,00
3323,39	812,00
3327,10	682,00
3330,82	666,00
3334,53	593,00
3338,24	647,00
3341,94	586,00
3345,64	647,00
3349,34	584,00
3353,03	638,00
3356,72	647,00
3360,41	673,00
3364,10	628,00
3367,78	685,00
3371,46	540,00
3375,13	583,00
3378,81	693,00
3382,48	603,00
3386,14	632,00
3389,81	634,00
3393,47	619,00
3397,12	726,00
3400,78	609,00
3404,43	581,00
3408,08	619,00
3411,72	548,00
3415,36	496,00
3419,00	594,00
3422,64	550,00
3426,27	595,00
3429,90	606,00
3433,53	572,00
3437,15	577,00
3440,77	543,00
3444,39	558,00
3448,00	538,00
3451,62	530,00
3455,22	550,00
3458,83	498,00
3462,43	514,00
3466,03	631,00
3469,63	495,00
3473,22	567,00
3476,81	563,00
3480,40	594,00
3483,99	531,00
3487,57	456,00
3491,15	545,00
3494,72	636,00
3498,29	597,00
3501,86	465,00
3505,43	500,00
3508,99	503,00
3512,56	425,00
3516,11	481,00
3519,67	618,00
3523,22	529,00
3526,77	558,00
3530,32	655,00
3533,86	606,00
3537,40	699,00
3540,94	491,00
3544,47	495,00
3548,00	388,00
3551,53	574,00
3555,06	522,00
3558,58	564,00
3562,10	536,00
3565,62	495,00
3569,13	526,00
3572,64	564,00
3576,15	391,00
3579,66	421,00
3583,16	528,00
3586,66	528,00
3590,16	559,00
3593,65	417,00
3597,14	441,00
3600,63	479,00
3604,11	499,00
3607,60	447,00
3611,08	421,00
3614,55	450,00
3618,03	422,00
3621,50	431,00
3624,97	407,00
3628,43	461,00
3631,90	405,00
3635,36	338,00
3638,81	535,00
3642,27	413,00
3645,72	494,00
3649,17	427,00
3652,61	459,00
3656,06	409,00
3659,50	537,00
3662,93	470,00
3666,37	491,00
3669,80	557,00
3673,23	499,00
3676,65	494,00
3680,08	524,00
3683,50	460,00
3686,92	359,00
3690,33	437,00
3693,74	427,00
3697,15	480,00
3700,56	514,00
3703,96	472,00
3707,36	340,00
3710,76	412,00
3714,16	393,00
3717,55	418,00
3720,94	353,00
3724,33	471,00
3727,71	483,00
3731,10	455,00
3734,48	428,00
3737,85	337,00
3741,23	455,00
3744,60	366,00
3747,97	407,00
3751,33	446,00
3754,69	455,00
3758,05	376,00
3761,41	379,00
3764,77	416,00
3768,12	343,00
3771,47	333,00
3774,82	420,00
3778,16	3,00
3781,50	5,00
3784,84	4,00
3788,18	3,00
>>>>>End Processed Spectral Data<<<<<
