SpectraSuite Data File
++++++++++++++++++++++++++++++++++++
Date: Mon Jan 05 16:24:04 ICT 2026
User: Administrator
Dark Spectrum Present: Yes
Reference Spectrum Present: No
Number of Sampled Component Spectra: 1
Spectrometers: MAYP113682
Integration Time (usec): 3000000 (MAYP113682)
Spectra Averaged: 1 (MAYP113682)
Boxcar Smoothing: 0 (MAYP113682)
Correct for Electrical Dark: No (MAYP113682)
Strobe/Lamp Enabled: No (MAYP113682)
Correct for Detector Non-linearity: No (MAYP113682)
Correct for Stray Light: No (MAYP113682)
Number of Pixels in Processed Spectrum: 2068
>>>>>Begin Processed Spectral Data<<<<<
-37534,58	15,00
-37414,56	6,00
-37295,11	1,00
-37176,24	3,00
-37057,95	223,00
-36940,22	269,00
-36823,05	288,00
-36706,45	375,00
-36590,40	261,00
-36474,90	305,00
-36359,95	294,00
-36245,55	295,00
-36131,68	314,00
-36018,35	267,00
-35905,55	276,00
-35793,29	355,00
-35681,54	263,00
-35570,32	372,00
-35459,62	382,00
-35349,43	363,00
-35239,75	317,00
-35130,58	318,00
-35021,91	343,00
-34913,74	278,00
-34806,07	341,00
-34698,89	302,00
-34592,20	323,00
-34486,00	331,00
-34380,28	334,00
-34275,04	239,00
-34170,27	238,00
-34065,98	404,00
-33962,16	337,00
-33858,81	387,00
-33755,92	271,00
-33653,49	369,00
-33551,52	433,00
-33450,01	349,00
-33348,94	371,00
-33248,33	255,00
-33148,16	326,00
-33048,43	346,00
-32949,14	513,00
-32850,29	351,00
-32751,87	311,00
-32653,89	361,00
-32556,33	319,00
-32459,20	257,00
-32362,49	413,00
-32266,19	319,00
-32170,32	243,00
-32074,86	390,00
-31979,82	359,00
-31885,18	381,00
-31790,95	444,00
-31697,12	396,00
-31603,69	375,00
-31510,67	388,00
-31418,04	333,00
-31325,80	334,00
-31233,95	283,00
-31142,49	374,00
-31051,42	280,00
-30960,73	395,00
-30870,43	425,00
-30780,50	412,00
-30690,95	371,00
-30601,77	442,00
-30512,97	377,00
-30424,53	259,00
-30336,46	397,00
-30248,76	322,00
-30161,42	407,00
-30074,44	344,00
-29987,81	331,00
-29901,55	424,00
-29815,63	336,00
-29730,07	435,00
-29644,86	428,00
-29560,00	411,00
-29475,48	427,00
-29391,30	352,00
-29307,47	438,00
-29223,97	331,00
-29140,81	413,00
-29057,99	460,00
-28975,50	354,00
-28893,34	448,00
-28811,51	392,00
-28730,00	424,00
-28648,82	240,00
-28567,97	375,00
-28487,43	385,00
-28407,21	312,00
-28327,32	305,00
-28247,73	408,00
-28168,46	416,00
-28089,50	355,00
-28010,85	288,00
-27932,51	323,00
-27854,48	330,00
-27776,75	322,00
-27699,32	400,00
-27622,19	375,00
-27545,37	383,00
-27468,84	269,00
-27392,60	411,00
-27316,66	390,00
-27241,01	335,00
-27165,66	301,00
-27090,59	229,00
-27015,81	375,00
-26941,31	432,00
-26867,10	339,00
-26793,17	472,00
-26719,52	292,00
-26646,15	319,00
-26573,06	316,00
-26500,24	368,00
-26427,70	388,00
-26355,43	320,00
-26283,43	377,00
-26211,71	292,00
-26140,25	461,00
-26069,06	309,00
-25998,13	353,00
-25927,46	331,00
-25857,06	305,00
-25786,92	351,00
-25717,04	244,00
-25647,42	281,00
-25578,05	246,00
-25508,94	286,00
-25440,09	367,00
-25371,48	439,00
-25303,13	412,00
-25235,02	415,00
-25167,17	313,00
-25099,56	362,00
-25032,19	367,00
-24965,07	259,00
-24898,20	291,00
-24831,56	263,00
-24765,17	317,00
-24699,01	272,00
-24633,10	441,00
-24567,41	305,00
-24501,97	303,00
-24436,75	429,00
-24371,77	286,00
-24307,03	300,00
-24242,51	369,00
-24178,22	289,00
-24114,16	294,00
-24050,32	367,00
-23986,71	436,00
-23923,32	329,00
-23860,16	353,00
-23797,22	333,00
-23734,50	261,00
-23672,00	247,00
-23609,71	370,00
-23547,65	402,00
-23485,80	332,00
-23424,16	276,00
-23362,74	395,00
-23301,53	442,00
-23240,54	243,00
-23179,75	241,00
-23119,17	333,00
-23058,80	330,00
-22998,64	389,00
-22938,68	322,00
-22878,93	349,00
-22819,39	241,00
-22760,04	315,00
-22700,90	358,00
-22641,96	334,00
-22583,22	317,00
-22524,68	301,00
-22466,33	383,00
-22408,19	336,00
-22350,23	294,00
-22292,48	365,00
-22234,92	342,00
-22177,55	365,00
-22120,37	358,00
-22063,38	290,00
-22006,58	346,00
-21949,98	352,00
-21893,56	226,00
-21837,33	368,00
-21781,28	316,00
-21725,42	303,00
-21669,74	443,00
-21614,25	349,00
-21558,94	347,00
-21503,81	408,00
-21448,86	374,00
-21394,10	335,00
-21339,51	275,00
-21285,10	302,00
-21230,86	274,00
-21176,81	304,00
-21122,93	320,00
-21069,22	254,00
-21015,69	299,00
-20962,33	323,00
-20909,14	367,00
-20856,13	323,00
-20803,28	391,00
-20750,61	392,00
-20698,10	285,00
-20645,76	269,00
-20593,59	362,00
-20541,59	374,00
-20489,75	349,00
-20438,07	260,00
-20386,56	303,00
-20335,22	361,00
-20284,03	297,00
-20233,01	353,00
-20182,15	261,00
-20131,45	357,00
-20080,91	185,00
-20030,52	342,00
-19980,30	293,00
-19930,23	299,00
-19880,32	376,00
-19830,56	231,00
-19780,96	325,00
-19731,52	378,00
-19682,23	350,00
-19633,09	279,00
-19584,10	306,00
-19535,26	334,00
-19486,58	358,00
-19438,04	286,00
-19389,66	386,00
-19341,42	360,00
-19293,33	277,00
-19245,39	359,00
-19197,60	414,00
-19149,95	356,00
-19102,45	293,00
-19055,09	263,00
-19007,87	266,00
-18960,80	426,00
-18913,87	331,00
-18867,09	313,00
-18820,44	395,00
-18773,94	371,00
-18727,57	389,00
-18681,35	289,00
-18635,26	261,00
-18589,31	347,00
-18543,50	311,00
-18497,83	340,00
-18452,29	335,00
-18406,89	312,00
-18361,63	383,00
-18316,50	368,00
-18271,50	253,00
-18226,63	349,00
-18181,90	338,00
-18137,30	339,00
-18092,84	273,00
-18048,50	378,00
-18004,29	332,00
-17960,22	271,00
-17916,27	285,00
-17872,45	354,00
-17828,76	482,00
-17785,20	301,00
-17741,77	402,00
-17698,46	389,00
-17655,28	345,00
-17612,22	372,00
-17569,29	358,00
-17526,48	374,00
-17483,79	398,00
-17441,23	288,00
-17398,79	376,00
-17356,48	298,00
-17314,28	416,00
-17272,21	356,00
-17230,26	401,00
-17188,42	282,00
-17146,71	351,00
-17105,12	281,00
-17063,64	345,00
-17022,28	285,00
-16981,04	318,00
-16939,92	419,00
-16898,91	389,00
-16858,02	297,00
-16817,25	236,00
-16776,59	382,00
-16736,04	255,00
-16695,61	385,00
-16655,29	343,00
-16615,09	309,00
-16574,99	370,00
-16535,01	335,00
-16495,15	311,00
-16455,39	329,00
-16415,74	246,00
-16376,21	329,00
-16336,78	216,00
-16297,46	378,00
-16258,26	324,00
-16219,16	390,00
-16180,17	392,00
-16141,28	384,00
-16102,51	357,00
-16063,84	297,00
-16025,27	338,00
-15986,82	198,00
-15948,46	388,00
-15910,22	337,00
-15872,07	315,00
-15834,04	402,00
-15796,10	317,00
-15758,27	496,00
-15720,54	279,00
-15682,91	306,00
-15645,39	424,00
-15607,97	395,00
-15570,64	264,00
-15533,42	387,00
-15496,30	387,00
-15459,28	384,00
-15422,36	425,00
-15385,54	329,00
-15348,82	350,00
-15312,19	385,00
-15275,66	337,00
-15239,23	340,00
-15202,90	291,00
-15166,67	370,00
-15130,53	467,00
-15094,48	370,00
-15058,54	279,00
-15022,68	299,00
-14986,93	245,00
-14951,26	402,00
-14915,69	394,00
-14880,22	246,00
-14844,84	282,00
-14809,55	353,00
-14774,35	293,00
-14739,25	312,00
-14704,24	457,00
-14669,32	351,00
-14634,49	289,00
-14599,75	296,00
-14565,10	315,00
-14530,55	374,00
-14496,08	358,00
-14461,70	382,00
-14427,41	341,00
-14393,21	240,00
-14359,10	310,00
-14325,07	317,00
-14291,14	232,00
-14257,29	351,00
-14223,52	375,00
-14189,85	379,00
-14156,26	388,00
-14122,76	241,00
-14089,34	309,00
-14056,01	338,00
-14022,76	298,00
-13989,60	390,00
-13956,52	446,00
-13923,53	306,00
-13890,62	280,00
-13857,79	266,00
-13825,05	233,00
-13792,39	277,00
-13759,81	405,00
-13727,31	410,00
-13694,90	338,00
-13662,57	417,00
-13630,31	412,00
-13598,14	314,00
-13566,05	267,00
-13534,05	342,00
-13502,12	379,00
-13470,27	276,00
-13438,50	370,00
-13406,80	284,00
-13375,19	367,00
-13343,66	246,00
-13312,20	367,00
-13280,83	301,00
-13249,53	368,00
-13218,30	179,00
-13187,16	301,00
-13156,09	494,00
-13125,10	340,00
-13094,18	352,00
-13063,34	353,00
-13032,58	263,00
-13001,89	324,00
-12971,28	379,00
-12940,74	306,00
-12910,27	338,00
-12879,88	408,00
-12849,57	375,00
-12819,33	367,00
-12789,16	415,00
-12759,06	368,00
-12729,04	299,00
-12699,09	915,00
-12669,21	397,00
-12639,41	359,00
-12609,68	339,00
-12580,02	293,00
-12550,43	398,00
-12520,91	275,00
-12491,46	334,00
-12462,08	268,00
-12432,77	324,00
-12403,54	301,00
-12374,37	256,00
-12345,27	391,00
-12316,24	312,00
-12287,29	327,00
-12258,40	331,00
-12229,57	413,00
-12200,82	295,00
-12172,14	418,00
-12143,52	243,00
-12114,97	339,00
-12086,49	367,00
-12058,07	396,00
-12029,73	315,00
-12001,44	385,00
-11973,23	318,00
-11945,08	370,00
-11917,00	308,00
-11888,98	336,00
-11861,03	452,00
-11833,15	344,00
-11805,32	417,00
-11777,57	306,00
-11749,88	414,00
-11722,25	320,00
-11694,69	351,00
-11667,19	295,00
-11639,75	302,00
-11612,38	311,00
-11585,07	365,00
-11557,83	395,00
-11530,65	440,00
-11503,53	326,00
-11476,47	384,00
-11449,48	292,00
-11422,54	394,00
-11395,67	345,00
-11368,86	393,00
-11342,11	318,00
-11315,43	266,00
-11288,80	304,00
-11262,23	371,00
-11235,73	338,00
-11209,28	478,00
-11182,90	281,00
-11156,57	301,00
-11130,31	463,00
-11104,10	407,00
-11077,96	355,00
-11051,87	287,00
-11025,84	238,00
-10999,87	358,00
-10973,96	271,00
-10948,11	246,00
-10922,31	406,00
-10896,58	258,00
-10870,90	322,00
-10845,28	373,00
-10819,71	369,00
-10794,20	338,00
-10768,75	361,00
-10743,36	353,00
-10718,02	286,00
-10692,74	369,00
-10667,52	335,00
-10642,35	385,00
-10617,24	350,00
-10592,18	437,00
-10567,18	356,00
-10542,23	318,00
-10517,34	321,00
-10492,51	462,00
-10467,72	368,00
-10443,00	417,00
-10418,32	364,00
-10393,70	387,00
-10369,14	317,00
-10344,63	227,00
-10320,17	366,00
-10295,77	359,00
-10271,42	366,00
-10247,12	346,00
-10222,88	399,00
-10198,68	326,00
-10174,54	343,00
-10150,46	494,00
-10126,42	391,00
-10102,44	345,00
-10078,51	341,00
-10054,63	351,00
-10030,80	392,00
-10007,03	417,00
-9983,30	436,00
-9959,63	495,00
-9936,01	474,00
-9912,44	519,00
-9888,92	442,00
-9865,44	403,00
-9842,02	379,00
-9818,65	442,00
-9795,33	408,00
-9772,06	463,00
-9748,84	451,00
-9725,67	380,00
-9702,55	451,00
-9679,47	509,00
-9656,45	478,00
-9633,47	441,00
-9610,55	458,00
-9587,67	616,00
-9564,84	665,00
-9542,06	582,00
-9519,32	634,00
-9496,64	676,00
-9474,00	656,00
-9451,41	681,00
-9428,87	637,00
-9406,37	765,00
-9383,92	657,00
-9361,52	640,00
-9339,17	856,00
-9316,86	812,00
-9294,60	815,00
-9272,38	833,00
-9250,21	913,00
-9228,09	1086,00
-9206,01	907,00
-9183,98	919,00
-9162,00	961,00
-9140,06	1073,00
-9118,16	824,00
-9096,31	862,00
-9074,51	939,00
-9052,75	866,00
-9031,04	916,00
-9009,37	826,00
-8987,74	862,00
-8966,16	789,00
-8944,63	779,00
-8923,14	801,00
-8901,69	780,00
-8880,29	708,00
-8858,93	722,00
-8837,61	865,00
-8816,34	701,00
-8795,11	851,00
-8773,92	773,00
-8752,78	667,00
-8731,68	642,00
-8710,62	838,00
-8689,61	750,00
-8668,63	716,00
-8647,70	728,00
-8626,82	801,00
-8605,97	860,00
-8585,17	657,00
-8564,41	749,00
-8543,69	746,00
-8523,01	699,00
-8502,37	777,00
-8481,78	703,00
-8461,23	600,00
-8440,71	708,00
-8420,24	682,00
-8399,81	768,00
-8379,42	686,00
-8359,08	728,00
-8338,77	531,00
-8318,50	571,00
-8298,27	547,00
-8278,09	656,00
-8257,94	683,00
-8237,83	704,00
-8217,76	717,00
-8197,74	716,00
-8177,75	697,00
-8157,80	532,00
-8137,89	549,00
-8118,02	542,00
-8098,19	563,00
-8078,40	628,00
-8058,65	535,00
-8038,93	612,00
-8019,26	595,00
-7999,62	646,00
-7980,02	606,00
-7960,46	451,00
-7940,94	488,00
-7921,46	464,00
-7902,01	521,00
-7882,60	575,00
-7863,23	575,00
-7843,90	486,00
-7824,61	475,00
-7805,35	518,00
-7786,13	535,00
-7766,95	628,00
-7747,80	694,00
-7728,69	514,00
-7709,62	575,00
-7690,59	608,00
-7671,59	615,00
-7652,63	446,00
-7633,70	538,00
-7614,81	559,00
-7595,96	524,00
-7577,15	566,00
-7558,37	476,00
-7539,62	474,00
-7520,91	458,00
-7502,24	443,00
-7483,60	496,00
-7465,00	542,00
-7446,44	562,00
-7427,91	444,00
-7409,41	441,00
-7390,95	459,00
-7372,53	386,00
-7354,14	598,00
-7335,78	455,00
-7317,46	478,00
-7299,18	464,00
-7280,92	386,00
-7262,71	575,00
-7244,52	525,00
-7226,38	410,00
-7208,26	351,00
-7190,18	403,00
-7172,14	443,00
-7154,12	501,00
-7136,15	539,00
-7118,20	614,00
-7100,29	539,00
-7082,41	526,00
-7064,57	432,00
-7046,76	513,00
-7028,98	382,00
-7011,24	455,00
-6993,53	438,00
-6975,85	485,00
-6958,20	422,00
-6940,59	448,00
-6923,01	354,00
-6905,46	489,00
-6887,94	340,00
-6870,46	-1670,00
-6853,01	497,00
-6835,59	408,00
-6818,21	370,00
-6800,85	429,00
-6783,53	442,00
-6766,24	415,00
-6748,98	494,00
-6731,76	412,00
-6714,56	458,00
-6697,40	312,00
-6680,26	447,00
-6663,16	418,00
-6646,09	441,00
-6629,05	447,00
-6612,05	467,00
-6595,07	408,00
-6578,13	461,00
-6561,21	356,00
-6544,33	448,00
-6527,47	294,00
-6510,65	421,00
-6493,86	317,00
-6477,10	461,00
-6460,36	458,00
-6443,66	345,00
-6426,99	395,00
-6410,35	387,00
-6393,74	434,00
-6377,16	276,00
-6360,61	326,00
-6344,09	347,00
-6327,59	314,00
-6311,13	524,00
-6294,70	343,00
-6278,29	424,00
-6261,92	323,00
-6245,58	340,00
-6229,26	413,00
-6212,97	403,00
-6196,72	307,00
-6180,49	463,00
-6164,29	287,00
-6148,12	486,00
-6131,98	455,00
-6115,86	428,00
-6099,78	403,00
-6083,72	393,00
-6067,69	382,00
-6051,69	421,00
-6035,72	446,00
-6019,78	406,00
-6003,87	429,00
-5987,98	397,00
-5972,12	394,00
-5956,29	340,00
-5940,49	229,00
-5924,71	587,00
-5908,96	330,00
-5893,24	426,00
-5877,55	389,00
-5861,89	385,00
-5846,25	320,00
-5830,64	336,00
-5815,05	374,00
-5799,50	362,00
-5783,97	334,00
-5768,47	328,00
-5752,99	442,00
-5737,55	281,00
-5722,12	352,00
-5706,73	415,00
-5691,36	449,00
-5676,02	397,00
-5660,71	298,00
-5645,42	332,00
-5630,16	366,00
-5614,92	415,00
-5599,71	344,00
-5584,53	322,00
-5569,37	361,00
-5554,24	443,00
-5539,14	352,00
-5524,06	398,00
-5509,01	404,00
-5493,98	358,00
-5478,98	356,00
-5464,00	320,00
-5449,05	421,00
-5434,13	409,00
-5419,23	258,00
-5404,36	283,00
-5389,51	356,00
-5374,69	452,00
-5359,89	341,00
-5345,12	436,00
-5330,37	427,00
-5315,65	300,00
-5300,95	428,00
-5286,28	389,00
-5271,63	280,00
-5257,01	395,00
-5242,41	370,00
-5227,84	357,00
-5213,29	478,00
-5198,76	324,00
-5184,26	434,00
-5169,79	359,00
-5155,33	416,00
-5140,91	325,00
-5126,51	331,00
-5112,13	409,00
-5097,77	323,00
-5083,44	356,00
-5069,13	379,00
-5054,85	345,00
-5040,59	423,00
-5026,36	400,00
-5012,15	382,00
-4997,96	406,00
-4983,80	410,00
-4969,66	366,00
-4955,54	323,00
-4941,44	341,00
-4927,37	260,00
-4913,33	271,00
-4899,30	283,00
-4885,30	378,00
-4871,33	293,00
-4857,37	288,00
-4843,44	270,00
-4829,53	425,00
-4815,65	435,00
-4801,79	329,00
-4787,95	471,00
-4774,13	334,00
-4760,34	289,00
-4746,56	411,00
-4732,82	316,00
-4719,09	287,00
-4705,38	430,00
-4691,70	322,00
-4678,04	471,00
-4664,41	432,00
-4650,79	476,00
-4637,20	265,00
-4623,63	297,00
-4610,08	435,00
-4596,56	369,00
-4583,05	277,00
-4569,57	325,00
-4556,11	372,00
-4542,67	345,00
-4529,25	320,00
-4515,86	279,00
-4502,49	309,00
-4489,13	428,00
-4475,80	417,00
-4462,49	256,00
-4449,21	354,00
-4435,94	270,00
-4422,70	251,00
-4409,47	226,00
-4396,27	321,00
-4383,09	279,00
-4369,93	329,00
-4356,79	360,00
-4343,67	390,00
-4330,58	392,00
-4317,50	356,00
-4304,45	412,00
-4291,41	426,00
-4278,40	273,00
-4265,41	289,00
-4252,44	363,00
-4239,49	192,00
-4226,55	321,00
-4213,65	281,00
-4200,76	380,00
-4187,89	378,00
-4175,04	308,00
-4162,21	258,00
-4149,40	358,00
-4136,61	330,00
-4123,85	362,00
-4111,10	298,00
-4098,37	421,00
-4085,66	330,00
-4072,98	329,00
-4060,31	320,00
-4047,66	415,00
-4035,04	362,00
-4022,43	317,00
-4009,84	285,00
-3997,27	290,00
-3984,72	333,00
-3972,19	380,00
-3959,69	394,00
-3947,20	394,00
-3934,73	339,00
-3922,27	248,00
-3909,84	332,00
-3897,43	348,00
-3885,04	388,00
-3872,67	388,00
-3860,31	254,00
-3847,98	397,00
-3835,66	357,00
-3823,36	328,00
-3811,09	354,00
-3798,83	326,00
-3786,59	279,00
-3774,37	357,00
-3762,17	248,00
-3749,98	288,00
-3737,82	343,00
-3725,67	395,00
-3713,55	310,00
-3701,44	381,00
-3689,35	454,00
-3677,28	411,00
-3665,22	367,00
-3653,19	320,00
-3641,17	380,00
-3629,18	389,00
-3617,20	406,00
-3605,24	377,00
-3593,30	375,00
-3581,37	438,00
-3569,47	373,00
-3557,58	371,00
-3545,71	383,00
-3533,86	369,00
-3522,02	313,00
-3510,21	357,00
-3498,41	383,00
-3486,63	294,00
-3474,87	291,00
-3463,12	282,00
-3451,40	365,00
-3439,69	399,00
-3428,00	290,00
-3416,33	280,00
-3404,67	243,00
-3393,03	297,00
-3381,41	416,00
-3369,81	360,00
-3358,22	433,00
-3346,66	416,00
-3335,10	363,00
-3323,57	320,00
-3312,06	380,00
-3300,56	382,00
-3289,08	365,00
-3277,61	375,00
-3266,16	301,00
-3254,73	343,00
-3243,32	423,00
-3231,92	260,00
-3220,55	449,00
-3209,18	449,00
-3197,84	267,00
-3186,51	378,00
-3175,20	314,00
-3163,90	296,00
-3152,63	344,00
-3141,36	274,00
-3130,12	380,00
-3118,89	377,00
-3107,68	309,00
-3096,49	357,00
-3085,31	266,00
-3074,15	369,00
-3063,00	424,00
-3051,87	382,00
-3040,76	279,00
-3029,67	447,00
-3018,59	440,00
-3007,52	453,00
-2996,48	372,00
-2985,44	344,00
-2974,43	297,00
-2963,43	324,00
-2952,45	483,00
-2941,48	349,00
-2930,53	403,00
-2919,60	222,00
-2908,68	354,00
-2897,78	394,00
-2886,89	398,00
-2876,02	370,00
-2865,17	270,00
-2854,33	345,00
-2843,50	382,00
-2832,70	351,00
-2821,90	371,00
-2811,13	409,00
-2800,37	375,00
-2789,62	169,00
-2778,89	372,00
-2768,18	414,00
-2757,48	368,00
-2746,80	334,00
-2736,13	277,00
-2725,48	458,00
-2714,84	310,00
-2704,22	305,00
-2693,61	344,00
-2683,02	412,00
-2672,45	469,00
-2661,89	354,00
-2651,34	406,00
-2640,81	397,00
-2630,30	417,00
-2619,80	340,00
-2609,31	360,00
-2598,84	342,00
-2588,39	384,00
-2577,95	356,00
-2567,52	243,00
-2557,11	356,00
-2546,71	363,00
-2536,33	472,00
-2525,97	326,00
-2515,62	357,00
-2505,28	366,00
-2494,96	309,00
-2484,65	401,00
-2474,36	539,00
-2464,08	352,00
-2453,82	467,00
-2443,57	379,00
-2433,33	344,00
-2423,11	418,00
-2412,91	439,00
-2402,72	328,00
-2392,54	302,00
-2382,38	287,00
-2372,23	424,00
-2362,09	-2715,00
-2351,97	382,00
-2341,87	263,00
-2331,78	339,00
-2321,70	326,00
-2311,64	387,00
-2301,59	395,00
-2291,55	312,00
-2281,53	345,00
-2271,53	270,00
-2261,53	402,00
-2251,55	342,00
-2241,59	342,00
-2231,64	364,00
-2221,70	356,00
-2211,78	350,00
-2201,87	338,00
-2191,97	337,00
-2182,09	378,00
-2172,22	388,00
-2162,37	292,00
-2152,53	258,00
-2142,70	373,00
-2132,89	313,00
-2123,09	479,00
-2113,30	402,00
-2103,53	293,00
-2093,77	328,00
-2084,02	337,00
-2074,29	354,00
-2064,57	422,00
-2054,86	342,00
-2045,17	471,00
-2035,49	415,00
-2025,82	297,00
-2016,17	382,00
-2006,53	297,00
-1996,91	416,00
-1987,29	330,00
-1977,69	367,00
-1968,11	279,00
-1958,53	329,00
-1948,97	274,00
-1939,42	377,00
-1929,89	351,00
-1920,37	443,00
-1910,86	298,00
-1901,36	398,00
-1891,88	298,00
-1882,41	363,00
-1872,95	375,00
-1863,51	365,00
-1854,08	309,00
-1844,66	442,00
-1835,26	374,00
-1825,86	357,00
-1816,48	277,00
-1807,11	452,00
-1797,76	357,00
-1788,42	371,00
-1779,09	310,00
-1769,77	329,00
-1760,47	463,00
-1751,17	332,00
-1741,89	335,00
-1732,63	338,00
-1723,37	405,00
-1714,13	306,00
-1704,90	318,00
-1695,68	430,00
-1686,48	220,00
-1677,29	332,00
-1668,11	395,00
-1658,94	308,00
-1649,78	316,00
-1640,64	341,00
-1631,51	301,00
-1622,39	432,00
-1613,28	385,00
-1604,19	460,00
-1595,10	269,00
-1586,03	389,00
-1576,97	468,00
-1567,93	293,00
-1558,89	376,00
-1549,87	412,00
-1540,86	321,00
-1531,86	350,00
-1522,87	397,00
-1513,90	379,00
-1504,93	374,00
-1495,98	379,00
-1487,04	442,00
-1478,12	266,00
-1469,20	371,00
-1460,30	360,00
-1451,40	493,00
-1442,52	395,00
-1433,65	453,00
-1424,80	400,00
-1415,95	307,00
-1407,12	441,00
-1398,30	366,00
-1389,48	396,00
-1380,69	206,00
-1371,90	308,00
-1363,12	416,00
-1354,36	482,00
-1345,60	339,00
-1336,86	303,00
-1328,13	403,00
-1319,41	348,00
-1310,70	368,00
-1302,01	290,00
-1293,32	258,00
-1284,65	335,00
-1275,99	432,00
-1267,33	454,00
-1258,69	386,00
-1250,06	305,00
-1241,45	299,00
-1232,84	470,00
-1224,25	348,00
-1215,66	382,00
-1207,09	300,00
-1198,53	324,00
-1189,97	390,00
-1181,43	290,00
-1172,91	336,00
-1164,39	425,00
-1155,88	342,00
-1147,38	252,00
-1138,90	328,00
-1130,43	299,00
-1121,96	364,00
-1113,51	352,00
-1105,07	377,00
-1096,64	463,00
-1088,22	370,00
-1079,81	395,00
-1071,41	379,00
-1063,02	415,00
-1054,65	328,00
-1046,28	407,00
-1037,92	356,00
-1029,58	437,00
-1021,24	452,00
-1012,92	495,00
-1004,61	359,00
-996,30	449,00
-988,01	388,00
-979,73	323,00
-971,46	411,00
-963,20	340,00
-954,95	315,00
-946,71	366,00
-938,48	420,00
-930,26	379,00
-922,06	475,00
-913,86	330,00
-905,67	275,00
-897,49	352,00
-889,33	221,00
-881,17	430,00
-873,02	393,00
-864,89	292,00
-856,76	319,00
-848,65	389,00
-840,54	367,00
-832,45	350,00
-824,36	368,00
-816,29	370,00
-808,22	401,00
-800,17	420,00
-792,12	363,00
-784,09	378,00
-776,06	284,00
-768,05	357,00
-760,04	356,00
-752,05	407,00
-744,07	315,00
-736,09	404,00
-728,13	281,00
-720,17	475,00
-712,23	419,00
-704,29	308,00
-696,37	308,00
-688,45	471,00
-680,55	370,00
-672,65	325,00
-664,77	338,00
-656,89	412,00
-649,03	339,00
-641,17	388,00
-633,32	376,00
-625,49	444,00
-617,66	299,00
-609,84	493,00
-602,03	296,00
-594,23	439,00
-586,45	422,00
-578,67	326,00
-570,90	360,00
-563,14	347,00
-555,39	454,00
-547,65	313,00
-539,91	347,00
-532,19	468,00
-524,48	326,00
-516,78	359,00
-509,08	467,00
-501,40	396,00
-493,72	433,00
-486,06	373,00
-478,40	360,00
-470,76	368,00
-463,12	364,00
-455,49	418,00
-447,87	410,00
-440,26	360,00
-432,66	344,00
-425,07	416,00
-417,49	404,00
-409,92	334,00
-402,35	300,00
-394,80	273,00
-387,25	339,00
-379,72	374,00
-372,19	347,00
-364,67	483,00
-357,17	325,00
-349,67	475,00
-342,18	369,00
-334,69	376,00
-327,22	383,00
-319,76	356,00
-312,30	406,00
-304,86	350,00
-297,42	391,00
-290,00	330,00
-282,58	358,00
-275,17	441,00
-267,77	450,00
-260,37	347,00
-252,99	511,00
-245,62	565,00
-238,25	466,00
-230,90	431,00
-223,55	524,00
-216,21	460,00
-208,88	617,00
-201,56	494,00
-194,25	572,00
-186,94	569,00
-179,65	570,00
-172,36	644,00
-165,08	606,00
-157,81	657,00
-150,55	703,00
-143,30	800,00
-136,06	777,00
-128,82	834,00
-121,60	806,00
-114,38	968,00
-107,17	1112,00
-99,97	1201,00
-92,78	1242,00
-85,60	1353,00
-78,42	1545,00
-71,25	1682,00
-64,10	1913,00
-56,95	2147,00
-49,81	2597,00
-42,67	3136,00
-35,55	3812,00
-28,43	4920,00
-21,33	7803,00
-14,23	24578,00
-7,14	57498,00
-0,05	57284,00
7,02	57012,00
14,09	57319,00
21,14	22517,00
28,19	9683,00
35,23	6186,00
42,27	4869,00
49,29	4037,00
56,31	3404,00
63,32	3075,00
70,32	2573,00
77,31	2191,00
84,29	2046,00
91,27	1883,00
98,23	1806,00
105,19	1730,00
112,14	2268,00
119,09	4003,00
126,02	7009,00
132,95	8935,00
139,87	9582,00
146,78	9759,00
153,68	9825,00
160,58	9680,00
167,46	9712,00
174,34	9897,00
181,21	9800,00
188,08	9773,00
194,93	9770,00
201,78	9737,00
208,62	9875,00
215,45	9964,00
222,27	10132,00
229,09	9907,00
235,90	9910,00
242,70	9905,00
249,49	9993,00
256,27	9846,00
263,05	9962,00
269,82	9848,00
276,58	10016,00
283,33	9888,00
290,08	9886,00
296,82	9781,00
303,55	9649,00
310,27	9533,00
316,98	9465,00
323,69	9557,00
330,39	9541,00
337,08	9558,00
343,76	9613,00
350,44	9599,00
357,11	9533,00
363,77	9650,00
370,42	9436,00
377,07	9566,00
383,71	9510,00
390,34	9624,00
396,96	9695,00
403,58	9687,00
410,19	9829,00
416,79	9760,00
423,38	9813,00
429,97	9794,00
436,55	9509,00
443,12	9379,00
449,68	9361,00
456,24	9297,00
462,79	9280,00
469,33	9146,00
475,86	9304,00
482,39	9212,00
488,91	9203,00
495,42	9223,00
501,93	9066,00
508,42	9208,00
514,91	8933,00
521,40	8928,00
527,87	8994,00
534,34	8863,00
540,80	8940,00
547,25	8839,00
553,70	8906,00
560,14	8931,00
566,57	8935,00
573,00	8949,00
579,41	8946,00
585,83	9048,00
592,23	8909,00
598,62	8975,00
605,01	8957,00
611,40	8867,00
617,77	8844,00
624,14	8709,00
630,50	8715,00
636,85	8686,00
643,20	8582,00
649,54	8579,00
655,87	8690,00
662,20	8685,00
668,52	8519,00
674,83	8530,00
681,13	8439,00
687,43	8533,00
693,72	8425,00
700,00	8411,00
706,28	8259,00
712,55	8420,00
718,81	8411,00
725,07	8420,00
731,32	8445,00
737,56	8389,00
743,79	8382,00
750,02	8509,00
756,24	8320,00
762,46	8319,00
768,67	8464,00
774,87	8355,00
781,06	8294,00
787,25	8353,00
793,43	8416,00
799,60	8365,00
805,77	8406,00
811,93	8373,00
818,08	8339,00
824,23	8395,00
830,37	8289,00
836,50	8162,00
842,63	8172,00
848,75	8156,00
854,87	7993,00
860,97	8156,00
867,07	8091,00
873,17	8147,00
879,25	7861,00
885,33	7917,00
891,41	8044,00
897,47	7852,00
903,53	7755,00
909,59	7804,00
915,63	7830,00
921,67	7840,00
927,71	7858,00
933,74	7790,00
939,76	7739,00
945,77	7871,00
951,78	7837,00
957,78	7735,00
963,78	7785,00
969,77	7784,00
975,75	7845,00
981,72	7763,00
987,69	8267,00
993,66	7879,00
999,61	7849,00
1005,56	7816,00
1011,51	7640,00
1017,44	7903,00
1023,37	7754,00
1029,30	7731,00
1035,22	7820,00
1041,13	7878,00
1047,03	7847,00
1052,93	7912,00
1058,83	8185,00
1064,71	8119,00
1070,59	7979,00
1076,47	7916,00
1082,33	7803,00
1088,20	7699,00
1094,05	7713,00
1099,90	7597,00
1105,74	7513,00
1111,58	7552,00
1117,41	7580,00
1123,23	7794,00
1129,05	8056,00
1134,86	7877,00
1140,67	7650,00
1146,47	7631,00
1152,26	7762,00
1158,05	7598,00
1163,83	7626,00
1169,60	7551,00
1175,37	7601,00
1181,13	7559,00
1186,89	7513,00
1192,64	7608,00
1198,38	7666,00
1204,12	7469,00
1209,85	7504,00
1215,58	7499,00
1221,30	7537,00
1227,02	7597,00
1232,72	7504,00
1238,43	7561,00
1244,12	7455,00
1249,81	7536,00
1255,50	7751,00
1261,17	7664,00
1266,85	7538,00
1272,51	7587,00
1278,17	7754,00
1283,83	7572,00
1289,47	7719,00
1295,12	8241,00
1300,75	7977,00
1306,38	7787,00
1312,01	7717,00
1317,63	7449,00
1323,24	7465,00
1328,85	7454,00
1334,45	7568,00
1340,04	7430,00
1345,63	7472,00
1351,22	7399,00
1356,80	7527,00
1362,37	7543,00
1367,93	7644,00
1373,49	7528,00
1379,05	7605,00
1384,60	7534,00
1390,14	7649,00
1395,68	7427,00
1401,21	7587,00
1406,74	7557,00
1412,26	7716,00
1417,77	7884,00
1423,28	7692,00
1428,78	7837,00
1434,28	8062,00
1439,77	8150,00
1445,26	8062,00
1450,74	8062,00
1456,22	7873,00
1461,68	7804,00
1467,15	7839,00
1472,61	7517,00
1478,06	7452,00
1483,51	7430,00
1488,95	7282,00
1494,38	7286,00
1499,81	7213,00
1505,24	7146,00
1510,65	7041,00
1516,07	7100,00
1521,48	7076,00
1526,88	6907,00
1532,27	6988,00
1537,67	6893,00
1543,05	6931,00
1548,43	6843,00
1553,81	6915,00
1559,18	6727,00
1564,54	6823,00
1569,90	6802,00
1575,25	6641,00
1580,60	6655,00
1585,94	6790,00
1591,28	6680,00
1596,61	6647,00
1601,93	6678,00
1607,25	6770,00
1612,57	6620,00
1617,88	6620,00
1623,18	6701,00
1628,48	6585,00
1633,77	6428,00
1639,06	6508,00
1644,34	6536,00
1649,62	6349,00
1654,89	6499,00
1660,16	6320,00
1665,42	6468,00
1670,67	6257,00
1675,92	6275,00
1681,17	6322,00
1686,41	6327,00
1691,64	6176,00
1696,87	6216,00
1702,10	6240,00
1707,32	6215,00
1712,53	6026,00
1717,74	6093,00
1722,94	6231,00
1728,14	6003,00
1733,33	6065,00
1738,52	5922,00
1743,70	5886,00
1748,88	5839,00
1754,05	5870,00
1759,22	5836,00
1764,38	5751,00
1769,53	5846,00
1774,69	5766,00
1779,83	5657,00
1784,97	5683,00
1790,11	5556,00
1795,24	5580,00
1800,36	5614,00
1805,48	5480,00
1810,60	5631,00
1815,71	5645,00
1820,82	5463,00
1825,92	5623,00
1831,01	5423,00
1836,10	5498,00
1841,19	5553,00
1846,26	5518,00
1851,34	5428,00
1856,41	5431,00
1861,47	5480,00
1866,53	5501,00
1871,59	5350,00
1876,64	5264,00
1881,68	5355,00
1886,72	5221,00
1891,76	5267,00
1896,79	5205,00
1901,81	5163,00
1906,83	5065,00
1911,85	5122,00
1916,86	4978,00
1921,86	4931,00
1926,86	4906,00
1931,86	4983,00
1936,85	4945,00
1941,83	4746,00
1946,81	4726,00
1951,79	4700,00
1956,76	4742,00
1961,72	4661,00
1966,68	4670,00
1971,64	4716,00
1976,59	4690,00
1981,54	4640,00
1986,48	4679,00
1991,42	4507,00
1996,35	4781,00
2001,27	4664,00
2006,20	4493,00
2011,11	4630,00
2016,03	4494,00
2020,93	4540,00
2025,84	4503,00
2030,73	4532,00
2035,63	4342,00
2040,52	4477,00
2045,40	4440,00
2050,28	4403,00
2055,15	4433,00
2060,02	4172,00
2064,89	4353,00
2069,75	4286,00
2074,60	4253,00
2079,46	4128,00
2084,30	4224,00
2089,14	4195,00
2093,98	4361,00
2098,81	4272,00
2103,64	4239,00
2108,46	4329,00
2113,28	4319,00
2118,09	4157,00
2122,90	4273,00
2127,70	4219,00
2132,50	4145,00
2137,30	4174,00
2142,09	4027,00
2146,87	4054,00
2151,66	4006,00
2156,43	3980,00
2161,20	4006,00
2165,97	4068,00
2170,73	3930,00
2175,49	4028,00
2180,24	3956,00
2184,99	3966,00
2189,74	3949,00
2194,48	3850,00
2199,21	3882,00
2203,94	3890,00
2208,67	3779,00
2213,39	3748,00
2218,11	3732,00
2222,82	3717,00
2227,53	3760,00
2232,23	3701,00
2236,93	3735,00
2241,63	3578,00
2246,32	3701,00
2251,00	3601,00
2255,68	3626,00
2260,36	3413,00
2265,03	3661,00
2269,70	3635,00
2274,36	3635,00
2279,02	3652,00
2283,68	3600,00
2288,33	3535,00
2292,97	3555,00
2297,61	3359,00
2302,25	3490,00
2306,88	3469,00
2311,51	3405,00
2316,14	3384,00
2320,75	3349,00
2325,37	3308,00
2329,98	3333,00
2334,59	3412,00
2339,19	3262,00
2343,79	3179,00
2348,38	3308,00
2352,97	3168,00
2357,55	3193,00
2362,13	3072,00
2366,71	3158,00
2371,28	3244,00
2375,85	3106,00
2380,41	3132,00
2384,97	3020,00
2389,52	3067,00
2394,07	3039,00
2398,62	2998,00
2403,16	3174,00
2407,70	2839,00
2412,23	2936,00
2416,76	3090,00
2421,29	3002,00
2425,81	3118,00
2430,32	2814,00
2434,84	2898,00
2439,34	2804,00
2443,85	2974,00
2448,35	2827,00
2452,84	2832,00
2457,33	2871,00
2461,82	2648,00
2466,30	2777,00
2470,78	2858,00
2475,25	2760,00
2479,72	2680,00
2484,19	2649,00
2488,65	2658,00
2493,11	2699,00
2497,56	2731,00
2502,01	2657,00
2506,46	2568,00
2510,90	2659,00
2515,34	2503,00
2519,77	2688,00
2524,20	2590,00
2528,62	2560,00
2533,04	2518,00
2537,46	2426,00
2541,87	2536,00
2546,28	2515,00
2550,68	2548,00
2555,08	2501,00
2559,48	2522,00
2563,87	2355,00
2568,26	2301,00
2572,64	2384,00
2577,02	2375,00
2581,40	2269,00
2585,77	2328,00
2590,14	2321,00
2594,50	2289,00
2598,86	2272,00
2603,22	2198,00
2607,57	2120,00
2611,92	2156,00
2616,26	2293,00
2620,60	2162,00
2624,94	2171,00
2629,27	2154,00
2633,60	2125,00
2637,92	2177,00
2642,24	2164,00
2646,56	2040,00
2650,87	2021,00
2655,18	2048,00
2659,48	2051,00
2663,78	2016,00
2668,08	1985,00
2672,37	2091,00
2676,66	1983,00
2680,95	2029,00
2685,23	2025,00
2689,50	1927,00
2693,78	1990,00
2698,05	1953,00
2702,31	1945,00
2706,57	2081,00
2710,83	2151,00
2715,08	2151,00
2719,33	2058,00
2723,58	2040,00
2727,82	2079,00
2732,06	2012,00
2736,29	2031,00
2740,53	1860,00
2744,75	1905,00
2748,97	1878,00
2753,19	1931,00
2757,41	1919,00
2761,62	1917,00
2765,83	1809,00
2770,03	1959,00
2774,23	1936,00
2778,43	1795,00
2782,62	1847,00
2786,81	1873,00
2791,00	1795,00
2795,18	1808,00
2799,35	1892,00
2803,53	1809,00
2807,70	1785,00
2811,86	1808,00
2816,03	1877,00
2820,19	1890,00
2824,34	1787,00
2828,49	1925,00
2832,64	1894,00
2836,78	2084,00
2840,92	2044,00
2845,06	2276,00
2849,19	2454,00
2853,32	2419,00
2857,45	2358,00
2861,57	2432,00
2865,69	2364,00
2869,80	2271,00
2873,91	2362,00
2878,02	2410,00
2882,12	2548,00
2886,22	2422,00
2890,32	2386,00
2894,41	2341,00
2898,50	2196,00
2902,58	2233,00
2906,67	2147,00
2910,74	2063,00
2914,82	1919,00
2918,89	2027,00
2922,96	1835,00
2927,02	1834,00
2931,08	1849,00
2935,13	1673,00
2939,19	1717,00
2943,24	1580,00
2947,28	1652,00
2951,32	1584,00
2955,36	1553,00
2959,40	1568,00
2963,43	1466,00
2967,46	1415,00
2971,48	1383,00
2975,50	1378,00
2979,52	1390,00
2983,53	1355,00
2987,54	1300,00
2991,55	1251,00
2995,55	1305,00
2999,55	1224,00
3003,54	1204,00
3007,54	1226,00
3011,53	1255,00
3015,51	1246,00
3019,49	1184,00
3023,47	1211,00
3027,45	1212,00
3031,42	1191,00
3035,39	1128,00
3039,35	1119,00
3043,31	1129,00
3047,27	1154,00
3051,22	1131,00
3055,17	1100,00
3059,12	1057,00
3063,06	1101,00
3067,00	1060,00
3070,94	1106,00
3074,87	1171,00
3078,80	1133,00
3082,73	1114,00
3086,65	1001,00
3090,57	998,00
3094,49	990,00
3098,40	990,00
3102,31	958,00
3106,22	1017,00
3110,12	989,00
3114,02	775,00
3117,92	961,00
3121,81	973,00
3125,70	853,00
3129,58	954,00
3133,47	831,00
3137,34	966,00
3141,22	922,00
3145,09	877,00
3148,96	890,00
3152,83	920,00
3156,69	980,00
3160,55	814,00
3164,40	938,00
3168,26	918,00
3172,10	930,00
3175,95	894,00
3179,79	1010,00
3183,63	889,00
3187,47	796,00
3191,30	904,00
3195,13	842,00
3198,95	772,00
3202,78	853,00
3206,60	813,00
3210,41	785,00
3214,23	784,00
3218,03	807,00
3221,84	754,00
3225,64	707,00
3229,44	690,00
3233,24	749,00
3237,03	821,00
3240,82	750,00
3244,61	657,00
3248,39	730,00
3252,17	813,00
3255,95	809,00
3259,72	775,00
3263,49	762,00
3267,26	720,00
3271,03	790,00
3274,79	706,00
3278,54	720,00
3282,30	633,00
3286,05	751,00
3289,80	711,00
3293,54	713,00
3297,29	707,00
3301,02	636,00
3304,76	669,00
3308,49	667,00
3312,22	589,00
3315,95	643,00
3319,67	639,00
3323,39	693,00
3327,10	679,00
3330,82	654,00
3334,53	651,00
3338,24	524,00
3341,94	542,00
3345,64	635,00
3349,34	667,00
3353,03	629,00
3356,72	586,00
3360,41	640,00
3364,10	576,00
3367,78	613,00
3371,46	567,00
3375,13	616,00
3378,81	646,00
3382,48	648,00
3386,14	550,00
3389,81	615,00
3393,47	575,00
3397,12	710,00
3400,78	655,00
3404,43	512,00
3408,08	546,00
3411,72	474,00
3415,36	554,00
3419,00	599,00
3422,64	514,00
3426,27	536,00
3429,90	584,00
3433,53	457,00
3437,15	508,00
3440,77	485,00
3444,39	441,00
3448,00	511,00
3451,62	544,00
3455,22	588,00
3458,83	513,00
3462,43	466,00
3466,03	525,00
3469,63	433,00
3473,22	469,00
3476,81	349,00
3480,40	620,00
3483,99	498,00
3487,57	371,00
3491,15	533,00
3494,72	529,00
3498,29	556,00
3501,86	457,00
3505,43	451,00
3508,99	421,00
3512,56	277,00
3516,11	494,00
3519,67	481,00
3523,22	477,00
3526,77	412,00
3530,32	529,00
3533,86	435,00
3537,40	492,00
3540,94	395,00
3544,47	447,00
3548,00	338,00
3551,53	458,00
3555,06	452,00
3558,58	439,00
3562,10	450,00
3565,62	406,00
3569,13	499,00
3572,64	579,00
3576,15	397,00
3579,66	361,00
3583,16	396,00
3586,66	439,00
3590,16	394,00
3593,65	467,00
3597,14	454,00
3600,63	381,00
3604,11	432,00
3607,60	416,00
3611,08	387,00
3614,55	440,00
3618,03	409,00
3621,50	378,00
3624,97	304,00
3628,43	341,00
3631,90	355,00
3635,36	294,00
3638,81	397,00
3642,27	411,00
3645,72	256,00
3649,17	261,00
3652,61	397,00
3656,06	401,00
3659,50	390,00
3662,93	357,00
3666,37	420,00
3669,80	529,00
3673,23	431,00
3676,65	385,00
3680,08	399,00
3683,50	309,00
3686,92	356,00
3690,33	351,00
3693,74	344,00
3697,15	370,00
3700,56	331,00
3703,96	373,00
3707,36	243,00
3710,76	301,00
3714,16	312,00
3717,55	309,00
3720,94	288,00
3724,33	316,00
3727,71	362,00
3731,10	297,00
3734,48	336,00
3737,85	356,00
3741,23	305,00
3744,60	225,00
3747,97	278,00
3751,33	391,00
3754,69	330,00
3758,05	322,00
3761,41	263,00
3764,77	251,00
3768,12	287,00
3771,47	281,00
3774,82	264,00
3778,16	0,00
3781,50	7,00
3784,84	-2,00
3788,18	6,00
>>>>>End Processed Spectral Data<<<<<
