SpectraSuite Data File
++++++++++++++++++++++++++++++++++++
Date: Mon Jan 05 16:24:37 ICT 2026
User: Administrator
Dark Spectrum Present: Yes
Reference Spectrum Present: No
Number of Sampled Component Spectra: 1
Spectrometers: MAYP113682
Integration Time (usec): 3000000 (MAYP113682)
Spectra Averaged: 1 (MAYP113682)
Boxcar Smoothing: 0 (MAYP113682)
Correct for Electrical Dark: No (MAYP113682)
Strobe/Lamp Enabled: No (MAYP113682)
Correct for Detector Non-linearity: No (MAYP113682)
Correct for Stray Light: No (MAYP113682)
Number of Pixels in Processed Spectrum: 2068
>>>>>Begin Processed Spectral Data<<<<<
-37534,58	16,00
-37414,56	7,00
-37295,11	1,00
-37176,24	2,00
-37057,95	228,00
-36940,22	261,00
-36823,05	317,00
-36706,45	378,00
-36590,40	397,00
-36474,90	338,00
-36359,95	336,00
-36245,55	335,00
-36131,68	333,00
-36018,35	318,00
-35905,55	348,00
-35793,29	447,00
-35681,54	302,00
-35570,32	345,00
-35459,62	342,00
-35349,43	333,00
-35239,75	329,00
-35130,58	271,00
-35021,91	340,00
-34913,74	381,00
-34806,07	398,00
-34698,89	404,00
-34592,20	315,00
-34486,00	430,00
-34380,28	363,00
-34275,04	276,00
-34170,27	327,00
-34065,98	377,00
-33962,16	323,00
-33858,81	352,00
-33755,92	241,00
-33653,49	449,00
-33551,52	442,00
-33450,01	410,00
-33348,94	383,00
-33248,33	390,00
-33148,16	363,00
-33048,43	339,00
-32949,14	531,00
-32850,29	487,00
-32751,87	356,00
-32653,89	398,00
-32556,33	292,00
-32459,20	324,00
-32362,49	362,00
-32266,19	453,00
-32170,32	314,00
-32074,86	389,00
-31979,82	446,00
-31885,18	441,00
-31790,95	416,00
-31697,12	483,00
-31603,69	324,00
-31510,67	423,00
-31418,04	442,00
-31325,80	282,00
-31233,95	241,00
-31142,49	325,00
-31051,42	385,00
-30960,73	399,00
-30870,43	530,00
-30780,50	412,00
-30690,95	455,00
-30601,77	450,00
-30512,97	436,00
-30424,53	349,00
-30336,46	371,00
-30248,76	380,00
-30161,42	455,00
-30074,44	369,00
-29987,81	480,00
-29901,55	468,00
-29815,63	328,00
-29730,07	431,00
-29644,86	455,00
-29560,00	407,00
-29475,48	482,00
-29391,30	491,00
-29307,47	421,00
-29223,97	400,00
-29140,81	429,00
-29057,99	341,00
-28975,50	327,00
-28893,34	503,00
-28811,51	350,00
-28730,00	380,00
-28648,82	365,00
-28567,97	380,00
-28487,43	389,00
-28407,21	413,00
-28327,32	323,00
-28247,73	472,00
-28168,46	397,00
-28089,50	440,00
-28010,85	350,00
-27932,51	352,00
-27854,48	485,00
-27776,75	368,00
-27699,32	400,00
-27622,19	349,00
-27545,37	440,00
-27468,84	422,00
-27392,60	440,00
-27316,66	458,00
-27241,01	413,00
-27165,66	358,00
-27090,59	311,00
-27015,81	491,00
-26941,31	434,00
-26867,10	368,00
-26793,17	391,00
-26719,52	290,00
-26646,15	359,00
-26573,06	299,00
-26500,24	397,00
-26427,70	488,00
-26355,43	282,00
-26283,43	393,00
-26211,71	349,00
-26140,25	394,00
-26069,06	355,00
-25998,13	294,00
-25927,46	394,00
-25857,06	362,00
-25786,92	366,00
-25717,04	372,00
-25647,42	432,00
-25578,05	357,00
-25508,94	315,00
-25440,09	387,00
-25371,48	421,00
-25303,13	388,00
-25235,02	403,00
-25167,17	431,00
-25099,56	381,00
-25032,19	390,00
-24965,07	350,00
-24898,20	336,00
-24831,56	305,00
-24765,17	436,00
-24699,01	361,00
-24633,10	439,00
-24567,41	437,00
-24501,97	349,00
-24436,75	390,00
-24371,77	299,00
-24307,03	353,00
-24242,51	370,00
-24178,22	273,00
-24114,16	374,00
-24050,32	387,00
-23986,71	381,00
-23923,32	313,00
-23860,16	370,00
-23797,22	380,00
-23734,50	352,00
-23672,00	353,00
-23609,71	365,00
-23547,65	289,00
-23485,80	430,00
-23424,16	315,00
-23362,74	444,00
-23301,53	425,00
-23240,54	337,00
-23179,75	323,00
-23119,17	353,00
-23058,80	345,00
-22998,64	493,00
-22938,68	387,00
-22878,93	319,00
-22819,39	232,00
-22760,04	312,00
-22700,90	336,00
-22641,96	361,00
-22583,22	326,00
-22524,68	405,00
-22466,33	297,00
-22408,19	435,00
-22350,23	342,00
-22292,48	313,00
-22234,92	359,00
-22177,55	332,00
-22120,37	435,00
-22063,38	353,00
-22006,58	362,00
-21949,98	333,00
-21893,56	320,00
-21837,33	357,00
-21781,28	355,00
-21725,42	394,00
-21669,74	496,00
-21614,25	382,00
-21558,94	336,00
-21503,81	423,00
-21448,86	401,00
-21394,10	342,00
-21339,51	302,00
-21285,10	274,00
-21230,86	363,00
-21176,81	374,00
-21122,93	361,00
-21069,22	341,00
-21015,69	345,00
-20962,33	460,00
-20909,14	342,00
-20856,13	412,00
-20803,28	501,00
-20750,61	380,00
-20698,10	365,00
-20645,76	399,00
-20593,59	412,00
-20541,59	415,00
-20489,75	400,00
-20438,07	281,00
-20386,56	412,00
-20335,22	313,00
-20284,03	361,00
-20233,01	306,00
-20182,15	324,00
-20131,45	381,00
-20080,91	296,00
-20030,52	383,00
-19980,30	300,00
-19930,23	328,00
-19880,32	384,00
-19830,56	305,00
-19780,96	416,00
-19731,52	308,00
-19682,23	407,00
-19633,09	299,00
-19584,10	364,00
-19535,26	423,00
-19486,58	432,00
-19438,04	325,00
-19389,66	440,00
-19341,42	386,00
-19293,33	413,00
-19245,39	358,00
-19197,60	376,00
-19149,95	358,00
-19102,45	360,00
-19055,09	256,00
-19007,87	369,00
-18960,80	396,00
-18913,87	414,00
-18867,09	426,00
-18820,44	373,00
-18773,94	409,00
-18727,57	434,00
-18681,35	266,00
-18635,26	410,00
-18589,31	280,00
-18543,50	302,00
-18497,83	400,00
-18452,29	404,00
-18406,89	280,00
-18361,63	443,00
-18316,50	407,00
-18271,50	406,00
-18226,63	452,00
-18181,90	335,00
-18137,30	389,00
-18092,84	331,00
-18048,50	437,00
-18004,29	405,00
-17960,22	331,00
-17916,27	409,00
-17872,45	430,00
-17828,76	429,00
-17785,20	294,00
-17741,77	390,00
-17698,46	414,00
-17655,28	385,00
-17612,22	375,00
-17569,29	266,00
-17526,48	411,00
-17483,79	436,00
-17441,23	265,00
-17398,79	389,00
-17356,48	287,00
-17314,28	412,00
-17272,21	373,00
-17230,26	420,00
-17188,42	415,00
-17146,71	415,00
-17105,12	361,00
-17063,64	412,00
-17022,28	290,00
-16981,04	312,00
-16939,92	321,00
-16898,91	381,00
-16858,02	339,00
-16817,25	349,00
-16776,59	365,00
-16736,04	356,00
-16695,61	433,00
-16655,29	350,00
-16615,09	300,00
-16574,99	357,00
-16535,01	359,00
-16495,15	363,00
-16455,39	366,00
-16415,74	289,00
-16376,21	364,00
-16336,78	369,00
-16297,46	305,00
-16258,26	396,00
-16219,16	319,00
-16180,17	351,00
-16141,28	363,00
-16102,51	437,00
-16063,84	297,00
-16025,27	398,00
-15986,82	305,00
-15948,46	337,00
-15910,22	344,00
-15872,07	392,00
-15834,04	477,00
-15796,10	311,00
-15758,27	414,00
-15720,54	335,00
-15682,91	399,00
-15645,39	461,00
-15607,97	431,00
-15570,64	277,00
-15533,42	412,00
-15496,30	420,00
-15459,28	384,00
-15422,36	366,00
-15385,54	335,00
-15348,82	437,00
-15312,19	462,00
-15275,66	237,00
-15239,23	432,00
-15202,90	300,00
-15166,67	446,00
-15130,53	364,00
-15094,48	412,00
-15058,54	344,00
-15022,68	328,00
-14986,93	294,00
-14951,26	429,00
-14915,69	458,00
-14880,22	340,00
-14844,84	332,00
-14809,55	388,00
-14774,35	324,00
-14739,25	348,00
-14704,24	371,00
-14669,32	365,00
-14634,49	359,00
-14599,75	382,00
-14565,10	297,00
-14530,55	440,00
-14496,08	456,00
-14461,70	360,00
-14427,41	463,00
-14393,21	252,00
-14359,10	312,00
-14325,07	426,00
-14291,14	356,00
-14257,29	357,00
-14223,52	450,00
-14189,85	396,00
-14156,26	379,00
-14122,76	299,00
-14089,34	317,00
-14056,01	365,00
-14022,76	276,00
-13989,60	350,00
-13956,52	435,00
-13923,53	363,00
-13890,62	417,00
-13857,79	368,00
-13825,05	352,00
-13792,39	335,00
-13759,81	381,00
-13727,31	366,00
-13694,90	380,00
-13662,57	421,00
-13630,31	388,00
-13598,14	268,00
-13566,05	373,00
-13534,05	324,00
-13502,12	394,00
-13470,27	406,00
-13438,50	479,00
-13406,80	247,00
-13375,19	414,00
-13343,66	333,00
-13312,20	375,00
-13280,83	360,00
-13249,53	366,00
-13218,30	337,00
-13187,16	483,00
-13156,09	504,00
-13125,10	445,00
-13094,18	376,00
-13063,34	426,00
-13032,58	336,00
-13001,89	347,00
-12971,28	436,00
-12940,74	317,00
-12910,27	361,00
-12879,88	372,00
-12849,57	454,00
-12819,33	451,00
-12789,16	391,00
-12759,06	350,00
-12729,04	374,00
-12699,09	187,00
-12669,21	392,00
-12639,41	392,00
-12609,68	368,00
-12580,02	356,00
-12550,43	417,00
-12520,91	317,00
-12491,46	382,00
-12462,08	340,00
-12432,77	343,00
-12403,54	355,00
-12374,37	319,00
-12345,27	383,00
-12316,24	362,00
-12287,29	330,00
-12258,40	350,00
-12229,57	387,00
-12200,82	344,00
-12172,14	430,00
-12143,52	296,00
-12114,97	283,00
-12086,49	392,00
-12058,07	381,00
-12029,73	382,00
-12001,44	492,00
-11973,23	406,00
-11945,08	314,00
-11917,00	401,00
-11888,98	274,00
-11861,03	491,00
-11833,15	384,00
-11805,32	464,00
-11777,57	358,00
-11749,88	409,00
-11722,25	262,00
-11694,69	308,00
-11667,19	379,00
-11639,75	357,00
-11612,38	259,00
-11585,07	410,00
-11557,83	426,00
-11530,65	411,00
-11503,53	291,00
-11476,47	347,00
-11449,48	383,00
-11422,54	510,00
-11395,67	417,00
-11368,86	351,00
-11342,11	331,00
-11315,43	326,00
-11288,80	388,00
-11262,23	390,00
-11235,73	454,00
-11209,28	457,00
-11182,90	392,00
-11156,57	377,00
-11130,31	446,00
-11104,10	341,00
-11077,96	381,00
-11051,87	260,00
-11025,84	363,00
-10999,87	350,00
-10973,96	384,00
-10948,11	276,00
-10922,31	345,00
-10896,58	415,00
-10870,90	346,00
-10845,28	464,00
-10819,71	287,00
-10794,20	409,00
-10768,75	399,00
-10743,36	349,00
-10718,02	332,00
-10692,74	416,00
-10667,52	392,00
-10642,35	354,00
-10617,24	463,00
-10592,18	435,00
-10567,18	348,00
-10542,23	320,00
-10517,34	318,00
-10492,51	470,00
-10467,72	281,00
-10443,00	408,00
-10418,32	410,00
-10393,70	464,00
-10369,14	352,00
-10344,63	331,00
-10320,17	377,00
-10295,77	409,00
-10271,42	341,00
-10247,12	388,00
-10222,88	436,00
-10198,68	330,00
-10174,54	351,00
-10150,46	506,00
-10126,42	444,00
-10102,44	365,00
-10078,51	371,00
-10054,63	471,00
-10030,80	402,00
-10007,03	443,00
-9983,30	429,00
-9959,63	503,00
-9936,01	482,00
-9912,44	433,00
-9888,92	518,00
-9865,44	374,00
-9842,02	395,00
-9818,65	410,00
-9795,33	335,00
-9772,06	474,00
-9748,84	374,00
-9725,67	438,00
-9702,55	468,00
-9679,47	469,00
-9656,45	538,00
-9633,47	499,00
-9610,55	454,00
-9587,67	543,00
-9564,84	602,00
-9542,06	547,00
-9519,32	604,00
-9496,64	653,00
-9474,00	591,00
-9451,41	706,00
-9428,87	465,00
-9406,37	749,00
-9383,92	539,00
-9361,52	600,00
-9339,17	627,00
-9316,86	658,00
-9294,60	867,00
-9272,38	728,00
-9250,21	999,00
-9228,09	848,00
-9206,01	905,00
-9183,98	829,00
-9162,00	810,00
-9140,06	821,00
-9118,16	736,00
-9096,31	802,00
-9074,51	785,00
-9052,75	925,00
-9031,04	860,00
-9009,37	683,00
-8987,74	703,00
-8966,16	690,00
-8944,63	577,00
-8923,14	672,00
-8901,69	661,00
-8880,29	565,00
-8858,93	796,00
-8837,61	792,00
-8816,34	746,00
-8795,11	805,00
-8773,92	652,00
-8752,78	766,00
-8731,68	679,00
-8710,62	785,00
-8689,61	542,00
-8668,63	763,00
-8647,70	867,00
-8626,82	810,00
-8605,97	801,00
-8585,17	829,00
-8564,41	752,00
-8543,69	581,00
-8523,01	733,00
-8502,37	743,00
-8481,78	669,00
-8461,23	630,00
-8440,71	598,00
-8420,24	678,00
-8399,81	857,00
-8379,42	758,00
-8359,08	713,00
-8338,77	621,00
-8318,50	616,00
-8298,27	472,00
-8278,09	687,00
-8257,94	717,00
-8237,83	766,00
-8217,76	764,00
-8197,74	781,00
-8177,75	780,00
-8157,80	702,00
-8137,89	581,00
-8118,02	670,00
-8098,19	707,00
-8078,40	589,00
-8058,65	654,00
-8038,93	617,00
-8019,26	654,00
-7999,62	741,00
-7980,02	547,00
-7960,46	517,00
-7940,94	573,00
-7921,46	557,00
-7902,01	553,00
-7882,60	616,00
-7863,23	497,00
-7843,90	509,00
-7824,61	603,00
-7805,35	701,00
-7786,13	643,00
-7766,95	572,00
-7747,80	600,00
-7728,69	606,00
-7709,62	644,00
-7690,59	691,00
-7671,59	674,00
-7652,63	614,00
-7633,70	592,00
-7614,81	565,00
-7595,96	553,00
-7577,15	581,00
-7558,37	491,00
-7539,62	465,00
-7520,91	584,00
-7502,24	515,00
-7483,60	582,00
-7465,00	516,00
-7446,44	642,00
-7427,91	468,00
-7409,41	410,00
-7390,95	496,00
-7372,53	418,00
-7354,14	419,00
-7335,78	407,00
-7317,46	442,00
-7299,18	475,00
-7280,92	476,00
-7262,71	537,00
-7244,52	482,00
-7226,38	536,00
-7208,26	442,00
-7190,18	500,00
-7172,14	493,00
-7154,12	510,00
-7136,15	506,00
-7118,20	649,00
-7100,29	590,00
-7082,41	616,00
-7064,57	396,00
-7046,76	536,00
-7028,98	483,00
-7011,24	432,00
-6993,53	416,00
-6975,85	396,00
-6958,20	386,00
-6940,59	384,00
-6923,01	332,00
-6905,46	498,00
-6887,94	367,00
-6870,46	-1674,00
-6853,01	598,00
-6835,59	428,00
-6818,21	416,00
-6800,85	439,00
-6783,53	431,00
-6766,24	294,00
-6748,98	443,00
-6731,76	353,00
-6714,56	264,00
-6697,40	318,00
-6680,26	342,00
-6663,16	347,00
-6646,09	384,00
-6629,05	419,00
-6612,05	408,00
-6595,07	349,00
-6578,13	485,00
-6561,21	396,00
-6544,33	475,00
-6527,47	169,00
-6510,65	339,00
-6493,86	212,00
-6477,10	293,00
-6460,36	321,00
-6443,66	290,00
-6426,99	337,00
-6410,35	364,00
-6393,74	397,00
-6377,16	200,00
-6360,61	366,00
-6344,09	267,00
-6327,59	246,00
-6311,13	435,00
-6294,70	394,00
-6278,29	467,00
-6261,92	403,00
-6245,58	394,00
-6229,26	488,00
-6212,97	378,00
-6196,72	229,00
-6180,49	386,00
-6164,29	247,00
-6148,12	450,00
-6131,98	376,00
-6115,86	288,00
-6099,78	321,00
-6083,72	323,00
-6067,69	324,00
-6051,69	342,00
-6035,72	365,00
-6019,78	278,00
-6003,87	412,00
-5987,98	397,00
-5972,12	371,00
-5956,29	348,00
-5940,49	254,00
-5924,71	469,00
-5908,96	293,00
-5893,24	364,00
-5877,55	283,00
-5861,89	363,00
-5846,25	218,00
-5830,64	340,00
-5815,05	369,00
-5799,50	368,00
-5783,97	426,00
-5768,47	369,00
-5752,99	409,00
-5737,55	246,00
-5722,12	374,00
-5706,73	348,00
-5691,36	435,00
-5676,02	352,00
-5660,71	236,00
-5645,42	340,00
-5630,16	319,00
-5614,92	436,00
-5599,71	334,00
-5584,53	291,00
-5569,37	298,00
-5554,24	1250,00
-5539,14	320,00
-5524,06	358,00
-5509,01	363,00
-5493,98	230,00
-5478,98	378,00
-5464,00	264,00
-5449,05	254,00
-5434,13	408,00
-5419,23	314,00
-5404,36	264,00
-5389,51	301,00
-5374,69	315,00
-5359,89	360,00
-5345,12	415,00
-5330,37	457,00
-5315,65	319,00
-5300,95	439,00
-5286,28	399,00
-5271,63	296,00
-5257,01	302,00
-5242,41	310,00
-5227,84	285,00
-5213,29	368,00
-5198,76	319,00
-5184,26	338,00
-5169,79	308,00
-5155,33	308,00
-5140,91	341,00
-5126,51	247,00
-5112,13	337,00
-5097,77	304,00
-5083,44	412,00
-5069,13	264,00
-5054,85	349,00
-5040,59	385,00
-5026,36	384,00
-5012,15	431,00
-4997,96	342,00
-4983,80	397,00
-4969,66	365,00
-4955,54	274,00
-4941,44	340,00
-4927,37	402,00
-4913,33	378,00
-4899,30	347,00
-4885,30	409,00
-4871,33	300,00
-4857,37	317,00
-4843,44	337,00
-4829,53	435,00
-4815,65	353,00
-4801,79	318,00
-4787,95	342,00
-4774,13	289,00
-4760,34	305,00
-4746,56	385,00
-4732,82	378,00
-4719,09	345,00
-4705,38	412,00
-4691,70	306,00
-4678,04	477,00
-4664,41	393,00
-4650,79	427,00
-4637,20	368,00
-4623,63	310,00
-4610,08	394,00
-4596,56	326,00
-4583,05	283,00
-4569,57	327,00
-4556,11	403,00
-4542,67	334,00
-4529,25	332,00
-4515,86	358,00
-4502,49	471,00
-4489,13	405,00
-4475,80	455,00
-4462,49	326,00
-4449,21	394,00
-4435,94	354,00
-4422,70	342,00
-4409,47	267,00
-4396,27	392,00
-4383,09	244,00
-4369,93	359,00
-4356,79	343,00
-4343,67	422,00
-4330,58	504,00
-4317,50	390,00
-4304,45	442,00
-4291,41	379,00
-4278,40	397,00
-4265,41	358,00
-4252,44	455,00
-4239,49	323,00
-4226,55	384,00
-4213,65	344,00
-4200,76	460,00
-4187,89	421,00
-4175,04	265,00
-4162,21	414,00
-4149,40	378,00
-4136,61	335,00
-4123,85	418,00
-4111,10	369,00
-4098,37	457,00
-4085,66	410,00
-4072,98	372,00
-4060,31	413,00
-4047,66	367,00
-4035,04	484,00
-4022,43	359,00
-4009,84	338,00
-3997,27	295,00
-3984,72	434,00
-3972,19	388,00
-3959,69	444,00
-3947,20	364,00
-3934,73	372,00
-3922,27	375,00
-3909,84	379,00
-3897,43	367,00
-3885,04	406,00
-3872,67	413,00
-3860,31	306,00
-3847,98	516,00
-3835,66	369,00
-3823,36	444,00
-3811,09	321,00
-3798,83	363,00
-3786,59	309,00
-3774,37	405,00
-3762,17	295,00
-3749,98	381,00
-3737,82	395,00
-3725,67	468,00
-3713,55	334,00
-3701,44	435,00
-3689,35	438,00
-3677,28	511,00
-3665,22	333,00
-3653,19	348,00
-3641,17	393,00
-3629,18	513,00
-3617,20	397,00
-3605,24	294,00
-3593,30	449,00
-3581,37	406,00
-3569,47	356,00
-3557,58	452,00
-3545,71	309,00
-3533,86	461,00
-3522,02	387,00
-3510,21	307,00
-3498,41	432,00
-3486,63	347,00
-3474,87	366,00
-3463,12	387,00
-3451,40	333,00
-3439,69	294,00
-3428,00	372,00
-3416,33	356,00
-3404,67	336,00
-3393,03	375,00
-3381,41	452,00
-3369,81	426,00
-3358,22	433,00
-3346,66	538,00
-3335,10	367,00
-3323,57	363,00
-3312,06	387,00
-3300,56	372,00
-3289,08	355,00
-3277,61	404,00
-3266,16	343,00
-3254,73	319,00
-3243,32	385,00
-3231,92	313,00
-3220,55	448,00
-3209,18	486,00
-3197,84	265,00
-3186,51	316,00
-3175,20	413,00
-3163,90	224,00
-3152,63	451,00
-3141,36	302,00
-3130,12	408,00
-3118,89	492,00
-3107,68	334,00
-3096,49	334,00
-3085,31	366,00
-3074,15	452,00
-3063,00	380,00
-3051,87	358,00
-3040,76	344,00
-3029,67	486,00
-3018,59	484,00
-3007,52	479,00
-2996,48	392,00
-2985,44	425,00
-2974,43	382,00
-2963,43	275,00
-2952,45	432,00
-2941,48	419,00
-2930,53	400,00
-2919,60	287,00
-2908,68	349,00
-2897,78	362,00
-2886,89	490,00
-2876,02	457,00
-2865,17	298,00
-2854,33	389,00
-2843,50	364,00
-2832,70	366,00
-2821,90	425,00
-2811,13	471,00
-2800,37	418,00
-2789,62	185,00
-2778,89	391,00
-2768,18	368,00
-2757,48	426,00
-2746,80	434,00
-2736,13	333,00
-2725,48	485,00
-2714,84	288,00
-2704,22	415,00
-2693,61	296,00
-2683,02	484,00
-2672,45	446,00
-2661,89	439,00
-2651,34	405,00
-2640,81	378,00
-2630,30	462,00
-2619,80	310,00
-2609,31	459,00
-2598,84	367,00
-2588,39	439,00
-2577,95	387,00
-2567,52	332,00
-2557,11	316,00
-2546,71	404,00
-2536,33	450,00
-2525,97	458,00
-2515,62	436,00
-2505,28	394,00
-2494,96	445,00
-2484,65	379,00
-2474,36	503,00
-2464,08	323,00
-2453,82	533,00
-2443,57	400,00
-2433,33	367,00
-2423,11	477,00
-2412,91	471,00
-2402,72	392,00
-2392,54	355,00
-2382,38	384,00
-2372,23	450,00
-2362,09	-2716,00
-2351,97	394,00
-2341,87	274,00
-2331,78	414,00
-2321,70	440,00
-2311,64	366,00
-2301,59	392,00
-2291,55	381,00
-2281,53	380,00
-2271,53	287,00
-2261,53	430,00
-2251,55	370,00
-2241,59	338,00
-2231,64	432,00
-2221,70	393,00
-2211,78	399,00
-2201,87	417,00
-2191,97	291,00
-2182,09	328,00
-2172,22	419,00
-2162,37	303,00
-2152,53	317,00
-2142,70	353,00
-2132,89	417,00
-2123,09	391,00
-2113,30	261,00
-2103,53	346,00
-2093,77	370,00
-2084,02	381,00
-2074,29	393,00
-2064,57	375,00
-2054,86	414,00
-2045,17	466,00
-2035,49	360,00
-2025,82	327,00
-2016,17	437,00
-2006,53	331,00
-1996,91	422,00
-1987,29	376,00
-1977,69	392,00
-1968,11	375,00
-1958,53	360,00
-1948,97	268,00
-1939,42	359,00
-1929,89	387,00
-1920,37	386,00
-1910,86	400,00
-1901,36	399,00
-1891,88	431,00
-1882,41	376,00
-1872,95	447,00
-1863,51	416,00
-1854,08	414,00
-1844,66	378,00
-1835,26	426,00
-1825,86	396,00
-1816,48	304,00
-1807,11	466,00
-1797,76	384,00
-1788,42	409,00
-1779,09	422,00
-1769,77	313,00
-1760,47	484,00
-1751,17	383,00
-1741,89	308,00
-1732,63	473,00
-1723,37	464,00
-1714,13	418,00
-1704,90	315,00
-1695,68	440,00
-1686,48	333,00
-1677,29	414,00
-1668,11	532,00
-1658,94	361,00
-1649,78	367,00
-1640,64	419,00
-1631,51	342,00
-1622,39	468,00
-1613,28	481,00
-1604,19	439,00
-1595,10	439,00
-1586,03	394,00
-1576,97	462,00
-1567,93	349,00
-1558,89	388,00
-1549,87	458,00
-1540,86	299,00
-1531,86	421,00
-1522,87	289,00
-1513,90	414,00
-1504,93	417,00
-1495,98	450,00
-1487,04	410,00
-1478,12	334,00
-1469,20	359,00
-1460,30	331,00
-1451,40	477,00
-1442,52	403,00
-1433,65	528,00
-1424,80	328,00
-1415,95	385,00
-1407,12	412,00
-1398,30	303,00
-1389,48	371,00
-1380,69	355,00
-1371,90	309,00
-1363,12	497,00
-1354,36	462,00
-1345,60	402,00
-1336,86	360,00
-1328,13	509,00
-1319,41	411,00
-1310,70	408,00
-1302,01	324,00
-1293,32	319,00
-1284,65	469,00
-1275,99	449,00
-1267,33	414,00
-1258,69	411,00
-1250,06	381,00
-1241,45	254,00
-1232,84	552,00
-1224,25	384,00
-1215,66	443,00
-1207,09	398,00
-1198,53	407,00
-1189,97	337,00
-1181,43	316,00
-1172,91	297,00
-1164,39	342,00
-1155,88	313,00
-1147,38	323,00
-1138,90	316,00
-1130,43	354,00
-1121,96	383,00
-1113,51	448,00
-1105,07	435,00
-1096,64	460,00
-1088,22	409,00
-1079,81	452,00
-1071,41	455,00
-1063,02	349,00
-1054,65	453,00
-1046,28	447,00
-1037,92	384,00
-1029,58	329,00
-1021,24	422,00
-1012,92	618,00
-1004,61	446,00
-996,30	477,00
-988,01	332,00
-979,73	404,00
-971,46	453,00
-963,20	434,00
-954,95	308,00
-946,71	356,00
-938,48	440,00
-930,26	505,00
-922,06	410,00
-913,86	259,00
-905,67	377,00
-897,49	357,00
-889,33	374,00
-881,17	439,00
-873,02	460,00
-864,89	327,00
-856,76	300,00
-848,65	391,00
-840,54	393,00
-832,45	384,00
-824,36	282,00
-816,29	360,00
-808,22	423,00
-800,17	450,00
-792,12	359,00
-784,09	436,00
-776,06	348,00
-768,05	382,00
-760,04	377,00
-752,05	436,00
-744,07	387,00
-736,09	430,00
-728,13	259,00
-720,17	418,00
-712,23	344,00
-704,29	279,00
-696,37	376,00
-688,45	400,00
-680,55	386,00
-672,65	411,00
-664,77	391,00
-656,89	377,00
-649,03	330,00
-641,17	398,00
-633,32	445,00
-625,49	494,00
-617,66	454,00
-609,84	352,00
-602,03	382,00
-594,23	477,00
-586,45	425,00
-578,67	367,00
-570,90	455,00
-563,14	358,00
-555,39	454,00
-547,65	478,00
-539,91	407,00
-532,19	512,00
-524,48	345,00
-516,78	385,00
-509,08	428,00
-501,40	451,00
-493,72	457,00
-486,06	361,00
-478,40	415,00
-470,76	397,00
-463,12	351,00
-455,49	414,00
-447,87	331,00
-440,26	382,00
-432,66	409,00
-425,07	441,00
-417,49	463,00
-409,92	270,00
-402,35	366,00
-394,80	339,00
-387,25	405,00
-379,72	497,00
-372,19	431,00
-364,67	554,00
-357,17	365,00
-349,67	385,00
-342,18	378,00
-334,69	474,00
-327,22	471,00
-319,76	446,00
-312,30	441,00
-304,86	446,00
-297,42	443,00
-290,00	414,00
-282,58	442,00
-275,17	529,00
-267,77	591,00
-260,37	482,00
-252,99	517,00
-245,62	503,00
-238,25	428,00
-230,90	443,00
-223,55	593,00
-216,21	507,00
-208,88	719,00
-201,56	589,00
-194,25	569,00
-186,94	661,00
-179,65	639,00
-172,36	611,00
-165,08	825,00
-157,81	775,00
-150,55	840,00
-143,30	902,00
-136,06	897,00
-128,82	997,00
-121,60	1100,00
-114,38	1081,00
-107,17	1241,00
-99,97	1371,00
-92,78	1494,00
-85,60	1579,00
-78,42	1794,00
-71,25	2133,00
-64,10	2308,00
-56,95	2717,00
-49,81	3180,00
-42,67	3904,00
-35,55	4672,00
-28,43	6087,00
-21,33	9747,00
-14,23	30778,00
-7,14	57498,00
-0,05	57284,00
7,02	57012,00
14,09	57319,00
21,14	27865,00
28,19	11893,00
35,23	7647,00
42,27	5933,00
49,29	4787,00
56,31	4091,00
63,32	3538,00
70,32	3078,00
77,31	2654,00
84,29	2349,00
91,27	2239,00
98,23	2098,00
105,19	2012,00
112,14	2269,00
119,09	3907,00
126,02	6449,00
132,95	8184,00
139,87	8542,00
146,78	8791,00
153,68	8844,00
160,58	8704,00
167,46	8633,00
174,34	8688,00
181,21	8725,00
188,08	8773,00
194,93	8718,00
201,78	8744,00
208,62	8804,00
215,45	8992,00
222,27	8837,00
229,09	9045,00
235,90	8832,00
242,70	8878,00
249,49	8926,00
256,27	8800,00
263,05	8761,00
269,82	8852,00
276,58	8840,00
283,33	8710,00
290,08	8599,00
296,82	8700,00
303,55	8639,00
310,27	8408,00
316,98	8443,00
323,69	8490,00
330,39	8415,00
337,08	8481,00
343,76	8479,00
350,44	8342,00
357,11	8493,00
363,77	8494,00
370,42	8464,00
377,07	8459,00
383,71	8431,00
390,34	8532,00
396,96	8627,00
403,58	8537,00
410,19	8728,00
416,79	8595,00
423,38	8683,00
429,97	8513,00
436,55	8336,00
443,12	8306,00
449,68	8225,00
456,24	8250,00
462,79	8221,00
469,33	8253,00
475,86	8176,00
482,39	8142,00
488,91	8111,00
495,42	8075,00
501,93	8024,00
508,42	7989,00
514,91	7808,00
521,40	7920,00
527,87	7968,00
534,34	7924,00
540,80	7966,00
547,25	7931,00
553,70	7917,00
560,14	8006,00
566,57	7845,00
573,00	7935,00
579,41	7905,00
585,83	7937,00
592,23	7878,00
598,62	7894,00
605,01	7863,00
611,40	7792,00
617,77	7864,00
624,14	7767,00
630,50	7742,00
636,85	7584,00
643,20	7670,00
649,54	7581,00
655,87	7578,00
662,20	7587,00
668,52	7531,00
674,83	7670,00
681,13	7491,00
687,43	7531,00
693,72	7356,00
700,00	7280,00
706,28	7420,00
712,55	7445,00
718,81	7486,00
725,07	7433,00
731,32	7408,00
737,56	7374,00
743,79	7315,00
750,02	7440,00
756,24	7416,00
762,46	7418,00
768,67	7506,00
774,87	7480,00
781,06	7211,00
787,25	7367,00
793,43	7425,00
799,60	7357,00
805,77	7374,00
811,93	7368,00
818,08	7406,00
824,23	7381,00
830,37	7329,00
836,50	7265,00
842,63	7210,00
848,75	7238,00
854,87	7261,00
860,97	7181,00
867,07	7120,00
873,17	7012,00
879,25	7067,00
885,33	7061,00
891,41	6959,00
897,47	7115,00
903,53	7083,00
909,59	6919,00
915,63	6969,00
921,67	6958,00
927,71	6863,00
933,74	6887,00
939,76	6735,00
945,77	6782,00
951,78	6973,00
957,78	6898,00
963,78	6992,00
969,77	6861,00
975,75	6861,00
981,72	6873,00
987,69	7552,00
993,66	6999,00
999,61	6872,00
1005,56	6854,00
1011,51	6853,00
1017,44	6863,00
1023,37	6950,00
1029,30	6815,00
1035,22	7040,00
1041,13	6794,00
1047,03	6952,00
1052,93	6879,00
1058,83	7234,00
1064,71	7175,00
1070,59	7144,00
1076,47	6915,00
1082,33	6907,00
1088,20	6868,00
1094,05	6743,00
1099,90	6559,00
1105,74	6799,00
1111,58	6657,00
1117,41	6739,00
1123,23	6835,00
1129,05	7029,00
1134,86	6860,00
1140,67	6921,00
1146,47	6757,00
1152,26	6740,00
1158,05	6778,00
1163,83	6684,00
1169,60	6711,00
1175,37	6799,00
1181,13	6705,00
1186,89	6539,00
1192,64	6624,00
1198,38	6740,00
1204,12	6589,00
1209,85	6521,00
1215,58	6622,00
1221,30	6678,00
1227,02	6587,00
1232,72	6613,00
1238,43	6649,00
1244,12	6554,00
1249,81	6679,00
1255,50	6722,00
1261,17	6800,00
1266,85	6663,00
1272,51	6558,00
1278,17	6801,00
1283,83	6843,00
1289,47	7105,00
1295,12	7122,00
1300,75	7063,00
1306,38	7080,00
1312,01	6820,00
1317,63	6651,00
1323,24	6629,00
1328,85	6690,00
1334,45	6567,00
1340,04	6580,00
1345,63	6704,00
1351,22	6636,00
1356,80	6651,00
1362,37	6800,00
1367,93	6616,00
1373,49	6767,00
1379,05	6754,00
1384,60	6626,00
1390,14	6672,00
1395,68	6618,00
1401,21	6680,00
1406,74	6673,00
1412,26	6727,00
1417,77	6991,00
1423,28	6760,00
1428,78	6925,00
1434,28	7008,00
1439,77	7276,00
1445,26	7214,00
1450,74	7193,00
1456,22	6979,00
1461,68	7012,00
1467,15	6879,00
1472,61	6621,00
1478,06	6687,00
1483,51	6582,00
1488,95	6390,00
1494,38	6408,00
1499,81	6315,00
1505,24	6304,00
1510,65	6179,00
1516,07	6187,00
1521,48	6173,00
1526,88	6098,00
1532,27	6087,00
1537,67	6059,00
1543,05	6084,00
1548,43	6073,00
1553,81	6164,00
1559,18	5942,00
1564,54	6103,00
1569,90	5991,00
1575,25	5966,00
1580,60	5849,00
1585,94	5943,00
1591,28	5939,00
1596,61	5868,00
1601,93	5816,00
1607,25	5935,00
1612,57	5930,00
1617,88	5762,00
1623,18	5871,00
1628,48	5775,00
1633,77	5778,00
1639,06	5859,00
1644,34	5701,00
1649,62	5657,00
1654,89	5780,00
1660,16	5672,00
1665,42	5740,00
1670,67	5643,00
1675,92	5522,00
1681,17	5571,00
1686,41	5587,00
1691,64	5528,00
1696,87	5552,00
1702,10	5510,00
1707,32	5498,00
1712,53	5366,00
1717,74	5364,00
1722,94	5464,00
1728,14	5322,00
1733,33	5375,00
1738,52	5288,00
1743,70	5213,00
1748,88	5185,00
1754,05	5134,00
1759,22	5133,00
1764,38	5241,00
1769,53	5087,00
1774,69	5158,00
1779,83	4941,00
1784,97	5055,00
1790,11	5027,00
1795,24	4780,00
1800,36	4995,00
1805,48	4862,00
1810,60	4901,00
1815,71	4930,00
1820,82	4905,00
1825,92	4839,00
1831,01	4877,00
1836,10	4926,00
1841,19	4813,00
1846,26	4758,00
1851,34	4875,00
1856,41	4845,00
1861,47	4772,00
1866,53	4944,00
1871,59	4802,00
1876,64	4817,00
1881,68	4599,00
1886,72	4605,00
1891,76	4644,00
1896,79	4623,00
1901,81	4623,00
1906,83	4645,00
1911,85	4513,00
1916,86	4433,00
1921,86	4344,00
1926,86	4509,00
1931,86	4449,00
1936,85	4360,00
1941,83	4239,00
1946,81	4314,00
1951,79	4228,00
1956,76	4304,00
1961,72	4144,00
1966,68	4259,00
1971,64	4182,00
1976,59	4217,00
1981,54	4189,00
1986,48	4065,00
1991,42	4064,00
1996,35	4315,00
2001,27	4088,00
2006,20	4026,00
2011,11	4161,00
2016,03	4064,00
2020,93	3896,00
2025,84	4016,00
2030,73	3971,00
2035,63	3922,00
2040,52	3974,00
2045,40	3977,00
2050,28	3880,00
2055,15	3906,00
2060,02	3760,00
2064,89	3876,00
2069,75	3871,00
2074,60	3764,00
2079,46	3705,00
2084,30	3747,00
2089,14	3711,00
2093,98	3781,00
2098,81	3865,00
2103,64	3786,00
2108,46	3859,00
2113,28	3780,00
2118,09	3846,00
2122,90	3706,00
2127,70	3677,00
2132,50	3652,00
2137,30	3688,00
2142,09	3576,00
2146,87	3640,00
2151,66	3559,00
2156,43	3522,00
2161,20	3578,00
2165,97	3572,00
2170,73	3522,00
2175,49	3554,00
2180,24	3608,00
2184,99	3608,00
2189,74	3602,00
2194,48	3555,00
2199,21	3403,00
2203,94	3447,00
2208,67	3277,00
2213,39	3303,00
2218,11	3363,00
2222,82	3298,00
2227,53	3331,00
2232,23	3371,00
2236,93	3277,00
2241,63	3240,00
2246,32	3241,00
2251,00	3234,00
2255,68	3199,00
2260,36	3246,00
2265,03	3321,00
2269,70	3216,00
2274,36	3269,00
2279,02	3243,00
2283,68	3178,00
2288,33	3091,00
2292,97	3117,00
2297,61	3134,00
2302,25	3151,00
2306,88	3084,00
2311,51	3021,00
2316,14	3086,00
2320,75	2998,00
2325,37	2992,00
2329,98	2956,00
2334,59	3098,00
2339,19	2850,00
2343,79	2954,00
2348,38	2854,00
2352,97	2889,00
2357,55	2824,00
2362,13	2897,00
2366,71	2873,00
2371,28	2941,00
2375,85	2785,00
2380,41	2767,00
2384,97	2772,00
2389,52	2788,00
2394,07	2778,00
2398,62	2727,00
2403,16	2835,00
2407,70	2649,00
2412,23	2648,00
2416,76	2723,00
2421,29	2707,00
2425,81	2673,00
2430,32	2684,00
2434,84	2598,00
2439,34	2561,00
2443,85	2644,00
2448,35	2474,00
2452,84	2416,00
2457,33	2554,00
2461,82	2460,00
2466,30	2375,00
2470,78	2544,00
2475,25	2451,00
2479,72	2467,00
2484,19	2463,00
2488,65	2361,00
2493,11	2352,00
2497,56	2524,00
2502,01	2298,00
2506,46	2456,00
2510,90	2362,00
2515,34	2237,00
2519,77	2380,00
2524,20	2316,00
2528,62	2307,00
2533,04	2299,00
2537,46	2345,00
2541,87	2268,00
2546,28	2238,00
2550,68	2293,00
2555,08	2274,00
2559,48	2217,00
2563,87	2043,00
2568,26	2043,00
2572,64	2154,00
2577,02	2085,00
2581,40	2032,00
2585,77	2145,00
2590,14	2059,00
2594,50	1962,00
2598,86	2039,00
2603,22	1925,00
2607,57	1902,00
2611,92	1981,00
2616,26	2080,00
2620,60	2006,00
2624,94	1927,00
2629,27	1925,00
2633,60	1872,00
2637,92	1954,00
2642,24	1991,00
2646,56	1899,00
2650,87	1812,00
2655,18	1873,00
2659,48	1862,00
2663,78	1797,00
2668,08	1769,00
2672,37	1858,00
2676,66	1817,00
2680,95	1702,00
2685,23	1921,00
2689,50	1828,00
2693,78	1849,00
2698,05	1820,00
2702,31	1796,00
2706,57	1886,00
2710,83	1966,00
2715,08	1796,00
2719,33	1905,00
2723,58	1821,00
2727,82	1876,00
2732,06	1822,00
2736,29	1759,00
2740,53	1812,00
2744,75	1737,00
2748,97	1805,00
2753,19	1751,00
2757,41	1804,00
2761,62	1729,00
2765,83	1763,00
2770,03	1653,00
2774,23	1711,00
2778,43	1679,00
2782,62	1722,00
2786,81	1741,00
2791,00	1659,00
2795,18	1682,00
2799,35	1743,00
2803,53	1665,00
2807,70	1715,00
2811,86	1678,00
2816,03	1758,00
2820,19	1691,00
2824,34	1658,00
2828,49	1760,00
2832,64	1776,00
2836,78	1863,00
2840,92	1930,00
2845,06	2173,00
2849,19	2227,00
2853,32	2306,00
2857,45	2296,00
2861,57	2285,00
2865,69	2191,00
2869,80	2094,00
2873,91	2107,00
2878,02	2346,00
2882,12	2228,00
2886,22	2190,00
2890,32	2205,00
2894,41	2060,00
2898,50	1994,00
2902,58	2001,00
2906,67	1951,00
2910,74	1932,00
2914,82	1750,00
2918,89	1851,00
2922,96	1798,00
2927,02	1653,00
2931,08	1651,00
2935,13	1544,00
2939,19	1575,00
2943,24	1495,00
2947,28	1579,00
2951,32	1478,00
2955,36	1342,00
2959,40	1427,00
2963,43	1366,00
2967,46	1367,00
2971,48	1329,00
2975,50	1234,00
2979,52	1304,00
2983,53	1297,00
2987,54	1201,00
2991,55	1312,00
2995,55	1295,00
2999,55	1171,00
3003,54	1201,00
3007,54	1179,00
3011,53	1144,00
3015,51	1109,00
3019,49	1124,00
3023,47	1065,00
3027,45	1098,00
3031,42	1050,00
3035,39	1087,00
3039,35	1034,00
3043,31	1100,00
3047,27	1127,00
3051,22	1070,00
3055,17	1071,00
3059,12	1056,00
3063,06	1060,00
3067,00	974,00
3070,94	1016,00
3074,87	1031,00
3078,80	995,00
3082,73	1011,00
3086,65	937,00
3090,57	987,00
3094,49	1044,00
3098,40	900,00
3102,31	914,00
3106,22	900,00
3110,12	879,00
3114,02	837,00
3117,92	844,00
3121,81	901,00
3125,70	853,00
3129,58	929,00
3133,47	831,00
3137,34	917,00
3141,22	981,00
3145,09	840,00
3148,96	935,00
3152,83	906,00
3156,69	945,00
3160,55	883,00
3164,40	855,00
3168,26	869,00
3172,10	904,00
3175,95	824,00
3179,79	888,00
3183,63	838,00
3187,47	824,00
3191,30	930,00
3195,13	788,00
3198,95	716,00
3202,78	862,00
3206,60	792,00
3210,41	769,00
3214,23	704,00
3218,03	859,00
3221,84	761,00
3225,64	694,00
3229,44	732,00
3233,24	777,00
3237,03	732,00
3240,82	656,00
3244,61	650,00
3248,39	707,00
3252,17	763,00
3255,95	744,00
3259,72	707,00
3263,49	767,00
3267,26	716,00
3271,03	753,00
3274,79	756,00
3278,54	742,00
3282,30	653,00
3286,05	701,00
3289,80	650,00
3293,54	663,00
3297,29	623,00
3301,02	594,00
3304,76	618,00
3308,49	671,00
3312,22	625,00
3315,95	598,00
3319,67	624,00
3323,39	680,00
3327,10	606,00
3330,82	620,00
3334,53	623,00
3338,24	621,00
3341,94	537,00
3345,64	633,00
3349,34	609,00
3353,03	643,00
3356,72	573,00
3360,41	621,00
3364,10	485,00
3367,78	614,00
3371,46	613,00
3375,13	601,00
3378,81	688,00
3382,48	588,00
3386,14	674,00
3389,81	657,00
3393,47	636,00
3397,12	702,00
3400,78	563,00
3404,43	529,00
3408,08	649,00
3411,72	501,00
3415,36	557,00
3419,00	521,00
3422,64	546,00
3426,27	624,00
3429,90	576,00
3433,53	453,00
3437,15	551,00
3440,77	404,00
3444,39	552,00
3448,00	618,00
3451,62	540,00
3455,22	585,00
3458,83	476,00
3462,43	568,00
3466,03	563,00
3469,63	465,00
3473,22	470,00
3476,81	440,00
3480,40	489,00
3483,99	476,00
3487,57	461,00
3491,15	467,00
3494,72	562,00
3498,29	523,00
3501,86	448,00
3505,43	426,00
3508,99	418,00
3512,56	311,00
3516,11	504,00
3519,67	473,00
3523,22	493,00
3526,77	379,00
3530,32	643,00
3533,86	565,00
3537,40	518,00
3540,94	513,00
3544,47	475,00
3548,00	403,00
3551,53	547,00
3555,06	439,00
3558,58	407,00
3562,10	458,00
3565,62	405,00
3569,13	398,00
3572,64	537,00
3576,15	401,00
3579,66	493,00
3583,16	427,00
3586,66	487,00
3590,16	423,00
3593,65	398,00
3597,14	330,00
3600,63	420,00
3604,11	417,00
3607,60	467,00
3611,08	431,00
3614,55	480,00
3618,03	405,00
3621,50	380,00
3624,97	363,00
3628,43	384,00
3631,90	386,00
3635,36	354,00
3638,81	457,00
3642,27	383,00
3645,72	421,00
3649,17	349,00
3652,61	383,00
3656,06	340,00
3659,50	422,00
3662,93	384,00
3666,37	457,00
3669,80	483,00
3673,23	429,00
3676,65	402,00
3680,08	466,00
3683,50	366,00
3686,92	359,00
3690,33	367,00
3693,74	421,00
3697,15	340,00
3700,56	441,00
3703,96	370,00
3707,36	288,00
3710,76	324,00
3714,16	319,00
3717,55	309,00
3720,94	225,00
3724,33	347,00
3727,71	423,00
3731,10	455,00
3734,48	400,00
3737,85	345,00
3741,23	300,00
3744,60	336,00
3747,97	302,00
3751,33	402,00
3754,69	325,00
3758,05	302,00
3761,41	320,00
3764,77	275,00
3768,12	323,00
3771,47	305,00
3774,82	341,00
3778,16	-6,00
3781,50	7,00
3784,84	4,00
3788,18	8,00
>>>>>End Processed Spectral Data<<<<<
