SpectraSuite Data File
++++++++++++++++++++++++++++++++++++
Date: Mon Jan 05 16:29:28 ICT 2026
User: Administrator
Dark Spectrum Present: Yes
Reference Spectrum Present: No
Number of Sampled Component Spectra: 1
Spectrometers: MAYP113682
Integration Time (usec): 3000000 (MAYP113682)
Spectra Averaged: 1 (MAYP113682)
Boxcar Smoothing: 0 (MAYP113682)
Correct for Electrical Dark: No (MAYP113682)
Strobe/Lamp Enabled: No (MAYP113682)
Correct for Detector Non-linearity: No (MAYP113682)
Correct for Stray Light: No (MAYP113682)
Number of Pixels in Processed Spectrum: 2068
>>>>>Begin Processed Spectral Data<<<<<
-37534,58	31,00
-37414,56	10,00
-37295,11	3,00
-37176,24	0,00
-37057,95	487,00
-36940,22	487,00
-36823,05	516,00
-36706,45	555,00
-36590,40	573,00
-36474,90	504,00
-36359,95	618,00
-36245,55	584,00
-36131,68	592,00
-36018,35	623,00
-35905,55	577,00
-35793,29	646,00
-35681,54	553,00
-35570,32	550,00
-35459,62	603,00
-35349,43	662,00
-35239,75	644,00
-35130,58	585,00
-35021,91	604,00
-34913,74	621,00
-34806,07	673,00
-34698,89	676,00
-34592,20	624,00
-34486,00	619,00
-34380,28	641,00
-34275,04	637,00
-34170,27	622,00
-34065,98	691,00
-33962,16	621,00
-33858,81	672,00
-33755,92	602,00
-33653,49	690,00
-33551,52	729,00
-33450,01	671,00
-33348,94	715,00
-33248,33	535,00
-33148,16	614,00
-33048,43	560,00
-32949,14	701,00
-32850,29	710,00
-32751,87	634,00
-32653,89	720,00
-32556,33	751,00
-32459,20	542,00
-32362,49	643,00
-32266,19	639,00
-32170,32	609,00
-32074,86	746,00
-31979,82	656,00
-31885,18	784,00
-31790,95	732,00
-31697,12	739,00
-31603,69	727,00
-31510,67	682,00
-31418,04	663,00
-31325,80	604,00
-31233,95	612,00
-31142,49	660,00
-31051,42	671,00
-30960,73	709,00
-30870,43	800,00
-30780,50	687,00
-30690,95	745,00
-30601,77	831,00
-30512,97	732,00
-30424,53	609,00
-30336,46	691,00
-30248,76	752,00
-30161,42	815,00
-30074,44	679,00
-29987,81	723,00
-29901,55	786,00
-29815,63	645,00
-29730,07	694,00
-29644,86	743,00
-29560,00	664,00
-29475,48	800,00
-29391,30	698,00
-29307,47	630,00
-29223,97	678,00
-29140,81	717,00
-29057,99	800,00
-28975,50	558,00
-28893,34	721,00
-28811,51	594,00
-28730,00	740,00
-28648,82	605,00
-28567,97	662,00
-28487,43	672,00
-28407,21	661,00
-28327,32	651,00
-28247,73	801,00
-28168,46	721,00
-28089,50	655,00
-28010,85	629,00
-27932,51	663,00
-27854,48	707,00
-27776,75	657,00
-27699,32	695,00
-27622,19	642,00
-27545,37	707,00
-27468,84	703,00
-27392,60	670,00
-27316,66	737,00
-27241,01	698,00
-27165,66	645,00
-27090,59	590,00
-27015,81	679,00
-26941,31	726,00
-26867,10	622,00
-26793,17	796,00
-26719,52	745,00
-26646,15	643,00
-26573,06	658,00
-26500,24	623,00
-26427,70	689,00
-26355,43	626,00
-26283,43	678,00
-26211,71	664,00
-26140,25	643,00
-26069,06	728,00
-25998,13	570,00
-25927,46	608,00
-25857,06	658,00
-25786,92	620,00
-25717,04	592,00
-25647,42	730,00
-25578,05	641,00
-25508,94	648,00
-25440,09	666,00
-25371,48	644,00
-25303,13	719,00
-25235,02	692,00
-25167,17	596,00
-25099,56	659,00
-25032,19	650,00
-24965,07	536,00
-24898,20	543,00
-24831,56	544,00
-24765,17	691,00
-24699,01	582,00
-24633,10	738,00
-24567,41	729,00
-24501,97	627,00
-24436,75	682,00
-24371,77	643,00
-24307,03	644,00
-24242,51	669,00
-24178,22	624,00
-24114,16	634,00
-24050,32	734,00
-23986,71	615,00
-23923,32	707,00
-23860,16	607,00
-23797,22	608,00
-23734,50	660,00
-23672,00	645,00
-23609,71	719,00
-23547,65	572,00
-23485,80	753,00
-23424,16	568,00
-23362,74	716,00
-23301,53	608,00
-23240,54	590,00
-23179,75	508,00
-23119,17	565,00
-23058,80	620,00
-22998,64	743,00
-22938,68	717,00
-22878,93	649,00
-22819,39	553,00
-22760,04	644,00
-22700,90	633,00
-22641,96	584,00
-22583,22	648,00
-22524,68	588,00
-22466,33	574,00
-22408,19	702,00
-22350,23	611,00
-22292,48	627,00
-22234,92	657,00
-22177,55	692,00
-22120,37	784,00
-22063,38	652,00
-22006,58	638,00
-21949,98	685,00
-21893,56	532,00
-21837,33	676,00
-21781,28	636,00
-21725,42	678,00
-21669,74	720,00
-21614,25	754,00
-21558,94	595,00
-21503,81	640,00
-21448,86	809,00
-21394,10	596,00
-21339,51	659,00
-21285,10	601,00
-21230,86	609,00
-21176,81	628,00
-21122,93	594,00
-21069,22	589,00
-21015,69	639,00
-20962,33	744,00
-20909,14	594,00
-20856,13	616,00
-20803,28	719,00
-20750,61	650,00
-20698,10	581,00
-20645,76	576,00
-20593,59	669,00
-20541,59	723,00
-20489,75	725,00
-20438,07	541,00
-20386,56	760,00
-20335,22	529,00
-20284,03	622,00
-20233,01	644,00
-20182,15	600,00
-20131,45	621,00
-20080,91	569,00
-20030,52	707,00
-19980,30	594,00
-19930,23	577,00
-19880,32	723,00
-19830,56	620,00
-19780,96	691,00
-19731,52	640,00
-19682,23	664,00
-19633,09	657,00
-19584,10	556,00
-19535,26	695,00
-19486,58	782,00
-19438,04	675,00
-19389,66	714,00
-19341,42	576,00
-19293,33	572,00
-19245,39	695,00
-19197,60	707,00
-19149,95	693,00
-19102,45	628,00
-19055,09	576,00
-19007,87	653,00
-18960,80	587,00
-18913,87	659,00
-18867,09	667,00
-18820,44	760,00
-18773,94	658,00
-18727,57	723,00
-18681,35	485,00
-18635,26	707,00
-18589,31	626,00
-18543,50	605,00
-18497,83	658,00
-18452,29	639,00
-18406,89	559,00
-18361,63	727,00
-18316,50	673,00
-18271,50	682,00
-18226,63	696,00
-18181,90	705,00
-18137,30	621,00
-18092,84	649,00
-18048,50	704,00
-18004,29	634,00
-17960,22	578,00
-17916,27	612,00
-17872,45	676,00
-17828,76	802,00
-17785,20	667,00
-17741,77	641,00
-17698,46	677,00
-17655,28	572,00
-17612,22	630,00
-17569,29	558,00
-17526,48	683,00
-17483,79	707,00
-17441,23	691,00
-17398,79	604,00
-17356,48	720,00
-17314,28	790,00
-17272,21	655,00
-17230,26	647,00
-17188,42	620,00
-17146,71	677,00
-17105,12	553,00
-17063,64	682,00
-17022,28	601,00
-16981,04	593,00
-16939,92	747,00
-16898,91	722,00
-16858,02	562,00
-16817,25	656,00
-16776,59	699,00
-16736,04	553,00
-16695,61	715,00
-16655,29	613,00
-16615,09	566,00
-16574,99	622,00
-16535,01	604,00
-16495,15	679,00
-16455,39	670,00
-16415,74	637,00
-16376,21	634,00
-16336,78	609,00
-16297,46	634,00
-16258,26	570,00
-16219,16	633,00
-16180,17	665,00
-16141,28	719,00
-16102,51	727,00
-16063,84	582,00
-16025,27	653,00
-15986,82	550,00
-15948,46	591,00
-15910,22	597,00
-15872,07	668,00
-15834,04	602,00
-15796,10	624,00
-15758,27	777,00
-15720,54	659,00
-15682,91	593,00
-15645,39	748,00
-15607,97	699,00
-15570,64	562,00
-15533,42	717,00
-15496,30	639,00
-15459,28	734,00
-15422,36	698,00
-15385,54	542,00
-15348,82	641,00
-15312,19	778,00
-15275,66	577,00
-15239,23	668,00
-15202,90	675,00
-15166,67	654,00
-15130,53	735,00
-15094,48	719,00
-15058,54	563,00
-15022,68	614,00
-14986,93	582,00
-14951,26	722,00
-14915,69	734,00
-14880,22	586,00
-14844,84	653,00
-14809,55	699,00
-14774,35	651,00
-14739,25	559,00
-14704,24	638,00
-14669,32	600,00
-14634,49	576,00
-14599,75	731,00
-14565,10	587,00
-14530,55	754,00
-14496,08	637,00
-14461,70	691,00
-14427,41	618,00
-14393,21	523,00
-14359,10	593,00
-14325,07	714,00
-14291,14	627,00
-14257,29	665,00
-14223,52	722,00
-14189,85	711,00
-14156,26	634,00
-14122,76	571,00
-14089,34	550,00
-14056,01	642,00
-14022,76	590,00
-13989,60	728,00
-13956,52	747,00
-13923,53	675,00
-13890,62	565,00
-13857,79	627,00
-13825,05	590,00
-13792,39	509,00
-13759,81	702,00
-13727,31	640,00
-13694,90	617,00
-13662,57	737,00
-13630,31	623,00
-13598,14	658,00
-13566,05	632,00
-13534,05	588,00
-13502,12	645,00
-13470,27	569,00
-13438,50	649,00
-13406,80	647,00
-13375,19	546,00
-13343,66	716,00
-13312,20	659,00
-13280,83	631,00
-13249,53	707,00
-13218,30	498,00
-13187,16	568,00
-13156,09	756,00
-13125,10	653,00
-13094,18	659,00
-13063,34	661,00
-13032,58	554,00
-13001,89	593,00
-12971,28	656,00
-12940,74	601,00
-12910,27	634,00
-12879,88	673,00
-12849,57	697,00
-12819,33	670,00
-12789,16	654,00
-12759,06	655,00
-12729,04	589,00
-12699,09	1697,00
-12669,21	675,00
-12639,41	593,00
-12609,68	598,00
-12580,02	483,00
-12550,43	771,00
-12520,91	563,00
-12491,46	623,00
-12462,08	569,00
-12432,77	681,00
-12403,54	638,00
-12374,37	557,00
-12345,27	702,00
-12316,24	661,00
-12287,29	648,00
-12258,40	652,00
-12229,57	708,00
-12200,82	630,00
-12172,14	690,00
-12143,52	516,00
-12114,97	587,00
-12086,49	663,00
-12058,07	764,00
-12029,73	664,00
-12001,44	783,00
-11973,23	645,00
-11945,08	591,00
-11917,00	682,00
-11888,98	664,00
-11861,03	692,00
-11833,15	648,00
-11805,32	717,00
-11777,57	580,00
-11749,88	685,00
-11722,25	597,00
-11694,69	665,00
-11667,19	628,00
-11639,75	652,00
-11612,38	578,00
-11585,07	690,00
-11557,83	635,00
-11530,65	784,00
-11503,53	639,00
-11476,47	654,00
-11449,48	596,00
-11422,54	782,00
-11395,67	664,00
-11368,86	738,00
-11342,11	619,00
-11315,43	623,00
-11288,80	588,00
-11262,23	667,00
-11235,73	648,00
-11209,28	816,00
-11182,90	676,00
-11156,57	673,00
-11130,31	724,00
-11104,10	623,00
-11077,96	650,00
-11051,87	611,00
-11025,84	639,00
-10999,87	710,00
-10973,96	632,00
-10948,11	627,00
-10922,31	723,00
-10896,58	705,00
-10870,90	736,00
-10845,28	619,00
-10819,71	566,00
-10794,20	784,00
-10768,75	700,00
-10743,36	730,00
-10718,02	541,00
-10692,74	616,00
-10667,52	705,00
-10642,35	644,00
-10617,24	713,00
-10592,18	682,00
-10567,18	614,00
-10542,23	691,00
-10517,34	726,00
-10492,51	701,00
-10467,72	582,00
-10443,00	613,00
-10418,32	643,00
-10393,70	725,00
-10369,14	670,00
-10344,63	578,00
-10320,17	738,00
-10295,77	680,00
-10271,42	650,00
-10247,12	720,00
-10222,88	720,00
-10198,68	602,00
-10174,54	753,00
-10150,46	753,00
-10126,42	862,00
-10102,44	714,00
-10078,51	683,00
-10054,63	773,00
-10030,80	645,00
-10007,03	780,00
-9983,30	837,00
-9959,63	828,00
-9936,01	867,00
-9912,44	833,00
-9888,92	834,00
-9865,44	718,00
-9842,02	784,00
-9818,65	860,00
-9795,33	716,00
-9772,06	804,00
-9748,84	807,00
-9725,67	781,00
-9702,55	787,00
-9679,47	935,00
-9656,45	957,00
-9633,47	828,00
-9610,55	840,00
-9587,67	968,00
-9564,84	1082,00
-9542,06	1050,00
-9519,32	1142,00
-9496,64	1168,00
-9474,00	982,00
-9451,41	1008,00
-9428,87	1146,00
-9406,37	1083,00
-9383,92	981,00
-9361,52	945,00
-9339,17	1203,00
-9316,86	1134,00
-9294,60	1301,00
-9272,38	1347,00
-9250,21	1602,00
-9228,09	1493,00
-9206,01	1535,00
-9183,98	1324,00
-9162,00	1252,00
-9140,06	1376,00
-9118,16	1201,00
-9096,31	1260,00
-9074,51	1274,00
-9052,75	1495,00
-9031,04	1375,00
-9009,37	1231,00
-8987,74	1268,00
-8966,16	1223,00
-8944,63	1060,00
-8923,14	1048,00
-8901,69	1137,00
-8880,29	895,00
-8858,93	1214,00
-8837,61	1236,00
-8816,34	1194,00
-8795,11	1216,00
-8773,92	1147,00
-8752,78	1102,00
-8731,68	1012,00
-8710,62	1181,00
-8689,61	1064,00
-8668,63	1205,00
-8647,70	1315,00
-8626,82	1278,00
-8605,97	1163,00
-8585,17	1184,00
-8564,41	1136,00
-8543,69	1165,00
-8523,01	982,00
-8502,37	1094,00
-8481,78	978,00
-8461,23	951,00
-8440,71	1147,00
-8420,24	1137,00
-8399,81	1341,00
-8379,42	1166,00
-8359,08	1157,00
-8338,77	1092,00
-8318,50	922,00
-8298,27	851,00
-8278,09	1020,00
-8257,94	967,00
-8237,83	1126,00
-8217,76	1187,00
-8197,74	1116,00
-8177,75	1148,00
-8157,80	960,00
-8137,89	1043,00
-8118,02	922,00
-8098,19	1084,00
-8078,40	1032,00
-8058,65	970,00
-8038,93	1038,00
-8019,26	1009,00
-7999,62	1048,00
-7980,02	999,00
-7960,46	913,00
-7940,94	927,00
-7921,46	886,00
-7902,01	810,00
-7882,60	959,00
-7863,23	922,00
-7843,90	904,00
-7824,61	970,00
-7805,35	1077,00
-7786,13	992,00
-7766,95	1005,00
-7747,80	1001,00
-7728,69	901,00
-7709,62	948,00
-7690,59	903,00
-7671,59	1057,00
-7652,63	948,00
-7633,70	967,00
-7614,81	981,00
-7595,96	1018,00
-7577,15	924,00
-7558,37	854,00
-7539,62	889,00
-7520,91	944,00
-7502,24	965,00
-7483,60	856,00
-7465,00	1008,00
-7446,44	989,00
-7427,91	701,00
-7409,41	772,00
-7390,95	792,00
-7372,53	609,00
-7354,14	719,00
-7335,78	775,00
-7317,46	777,00
-7299,18	730,00
-7280,92	834,00
-7262,71	1004,00
-7244,52	900,00
-7226,38	897,00
-7208,26	826,00
-7190,18	818,00
-7172,14	776,00
-7154,12	900,00
-7136,15	816,00
-7118,20	920,00
-7100,29	913,00
-7082,41	973,00
-7064,57	752,00
-7046,76	873,00
-7028,98	721,00
-7011,24	760,00
-6993,53	650,00
-6975,85	735,00
-6958,20	722,00
-6940,59	733,00
-6923,01	620,00
-6905,46	750,00
-6887,94	749,00
-6870,46	1050,00
-6853,01	769,00
-6835,59	845,00
-6818,21	689,00
-6800,85	823,00
-6783,53	702,00
-6766,24	598,00
-6748,98	686,00
-6731,76	590,00
-6714,56	596,00
-6697,40	566,00
-6680,26	616,00
-6663,16	604,00
-6646,09	754,00
-6629,05	780,00
-6612,05	732,00
-6595,07	655,00
-6578,13	735,00
-6561,21	669,00
-6544,33	762,00
-6527,47	541,00
-6510,65	622,00
-6493,86	554,00
-6477,10	520,00
-6460,36	670,00
-6443,66	543,00
-6426,99	625,00
-6410,35	667,00
-6393,74	685,00
-6377,16	674,00
-6360,61	617,00
-6344,09	498,00
-6327,59	495,00
-6311,13	752,00
-6294,70	666,00
-6278,29	616,00
-6261,92	646,00
-6245,58	726,00
-6229,26	825,00
-6212,97	646,00
-6196,72	543,00
-6180,49	707,00
-6164,29	546,00
-6148,12	654,00
-6131,98	685,00
-6115,86	600,00
-6099,78	627,00
-6083,72	544,00
-6067,69	564,00
-6051,69	564,00
-6035,72	715,00
-6019,78	620,00
-6003,87	676,00
-5987,98	600,00
-5972,12	663,00
-5956,29	551,00
-5940,49	580,00
-5924,71	727,00
-5908,96	658,00
-5893,24	662,00
-5877,55	556,00
-5861,89	751,00
-5846,25	490,00
-5830,64	616,00
-5815,05	632,00
-5799,50	597,00
-5783,97	671,00
-5768,47	625,00
-5752,99	739,00
-5737,55	571,00
-5722,12	660,00
-5706,73	619,00
-5691,36	638,00
-5676,02	558,00
-5660,71	613,00
-5645,42	652,00
-5630,16	631,00
-5614,92	702,00
-5599,71	574,00
-5584,53	701,00
-5569,37	580,00
-5554,24	1674,00
-5539,14	552,00
-5524,06	666,00
-5509,01	659,00
-5493,98	577,00
-5478,98	614,00
-5464,00	481,00
-5449,05	623,00
-5434,13	597,00
-5419,23	618,00
-5404,36	564,00
-5389,51	566,00
-5374,69	559,00
-5359,89	759,00
-5345,12	692,00
-5330,37	781,00
-5315,65	649,00
-5300,95	663,00
-5286,28	621,00
-5271,63	516,00
-5257,01	656,00
-5242,41	567,00
-5227,84	486,00
-5213,29	689,00
-5198,76	603,00
-5184,26	663,00
-5169,79	653,00
-5155,33	561,00
-5140,91	619,00
-5126,51	530,00
-5112,13	618,00
-5097,77	698,00
-5083,44	613,00
-5069,13	574,00
-5054,85	682,00
-5040,59	662,00
-5026,36	527,00
-5012,15	633,00
-4997,96	596,00
-4983,80	704,00
-4969,66	595,00
-4955,54	538,00
-4941,44	695,00
-4927,37	575,00
-4913,33	590,00
-4899,30	626,00
-4885,30	639,00
-4871,33	607,00
-4857,37	585,00
-4843,44	588,00
-4829,53	754,00
-4815,65	677,00
-4801,79	495,00
-4787,95	674,00
-4774,13	655,00
-4760,34	622,00
-4746,56	690,00
-4732,82	564,00
-4719,09	630,00
-4705,38	697,00
-4691,70	621,00
-4678,04	717,00
-4664,41	674,00
-4650,79	778,00
-4637,20	639,00
-4623,63	633,00
-4610,08	701,00
-4596,56	641,00
-4583,05	539,00
-4569,57	551,00
-4556,11	658,00
-4542,67	610,00
-4529,25	612,00
-4515,86	640,00
-4502,49	657,00
-4489,13	737,00
-4475,80	768,00
-4462,49	540,00
-4449,21	717,00
-4435,94	625,00
-4422,70	517,00
-4409,47	537,00
-4396,27	657,00
-4383,09	549,00
-4369,93	655,00
-4356,79	596,00
-4343,67	656,00
-4330,58	654,00
-4317,50	665,00
-4304,45	653,00
-4291,41	671,00
-4278,40	681,00
-4265,41	558,00
-4252,44	707,00
-4239,49	509,00
-4226,55	666,00
-4213,65	614,00
-4200,76	766,00
-4187,89	672,00
-4175,04	595,00
-4162,21	539,00
-4149,40	608,00
-4136,61	601,00
-4123,85	680,00
-4111,10	645,00
-4098,37	646,00
-4085,66	662,00
-4072,98	707,00
-4060,31	639,00
-4047,66	690,00
-4035,04	743,00
-4022,43	635,00
-4009,84	633,00
-3997,27	563,00
-3984,72	677,00
-3972,19	634,00
-3959,69	605,00
-3947,20	575,00
-3934,73	531,00
-3922,27	566,00
-3909,84	590,00
-3897,43	803,00
-3885,04	719,00
-3872,67	599,00
-3860,31	631,00
-3847,98	690,00
-3835,66	720,00
-3823,36	676,00
-3811,09	612,00
-3798,83	736,00
-3786,59	720,00
-3774,37	796,00
-3762,17	612,00
-3749,98	675,00
-3737,82	649,00
-3725,67	914,00
-3713,55	667,00
-3701,44	656,00
-3689,35	659,00
-3677,28	712,00
-3665,22	565,00
-3653,19	660,00
-3641,17	665,00
-3629,18	708,00
-3617,20	686,00
-3605,24	690,00
-3593,30	701,00
-3581,37	753,00
-3569,47	735,00
-3557,58	650,00
-3545,71	766,00
-3533,86	672,00
-3522,02	642,00
-3510,21	681,00
-3498,41	717,00
-3486,63	675,00
-3474,87	661,00
-3463,12	636,00
-3451,40	722,00
-3439,69	633,00
-3428,00	689,00
-3416,33	759,00
-3404,67	564,00
-3393,03	653,00
-3381,41	643,00
-3369,81	713,00
-3358,22	750,00
-3346,66	713,00
-3335,10	701,00
-3323,57	573,00
-3312,06	724,00
-3300,56	749,00
-3289,08	599,00
-3277,61	689,00
-3266,16	680,00
-3254,73	658,00
-3243,32	724,00
-3231,92	578,00
-3220,55	716,00
-3209,18	784,00
-3197,84	591,00
-3186,51	631,00
-3175,20	650,00
-3163,90	648,00
-3152,63	781,00
-3141,36	605,00
-3130,12	590,00
-3118,89	685,00
-3107,68	600,00
-3096,49	697,00
-3085,31	678,00
-3074,15	683,00
-3063,00	642,00
-3051,87	636,00
-3040,76	602,00
-3029,67	779,00
-3018,59	824,00
-3007,52	740,00
-2996,48	636,00
-2985,44	684,00
-2974,43	702,00
-2963,43	578,00
-2952,45	718,00
-2941,48	682,00
-2930,53	717,00
-2919,60	565,00
-2908,68	671,00
-2897,78	678,00
-2886,89	704,00
-2876,02	699,00
-2865,17	616,00
-2854,33	693,00
-2843,50	664,00
-2832,70	666,00
-2821,90	677,00
-2811,13	725,00
-2800,37	732,00
-2789,62	587,00
-2778,89	651,00
-2768,18	733,00
-2757,48	709,00
-2746,80	799,00
-2736,13	586,00
-2725,48	772,00
-2714,84	622,00
-2704,22	641,00
-2693,61	709,00
-2683,02	692,00
-2672,45	716,00
-2661,89	623,00
-2651,34	779,00
-2640,81	748,00
-2630,30	762,00
-2619,80	659,00
-2609,31	710,00
-2598,84	626,00
-2588,39	649,00
-2577,95	663,00
-2567,52	527,00
-2557,11	576,00
-2546,71	677,00
-2536,33	787,00
-2525,97	739,00
-2515,62	652,00
-2505,28	721,00
-2494,96	643,00
-2484,65	680,00
-2474,36	978,00
-2464,08	538,00
-2453,82	826,00
-2443,57	629,00
-2433,33	605,00
-2423,11	659,00
-2412,91	726,00
-2402,72	611,00
-2392,54	664,00
-2382,38	678,00
-2372,23	705,00
-2362,09	1683,00
-2351,97	651,00
-2341,87	599,00
-2331,78	686,00
-2321,70	766,00
-2311,64	643,00
-2301,59	688,00
-2291,55	611,00
-2281,53	726,00
-2271,53	596,00
-2261,53	682,00
-2251,55	653,00
-2241,59	677,00
-2231,64	693,00
-2221,70	667,00
-2211,78	671,00
-2201,87	693,00
-2191,97	707,00
-2182,09	611,00
-2172,22	690,00
-2162,37	677,00
-2152,53	584,00
-2142,70	615,00
-2132,89	641,00
-2123,09	769,00
-2113,30	651,00
-2103,53	639,00
-2093,77	715,00
-2084,02	700,00
-2074,29	733,00
-2064,57	662,00
-2054,86	716,00
-2045,17	710,00
-2035,49	727,00
-2025,82	546,00
-2016,17	638,00
-2006,53	535,00
-1996,91	745,00
-1987,29	600,00
-1977,69	685,00
-1968,11	619,00
-1958,53	597,00
-1948,97	639,00
-1939,42	662,00
-1929,89	716,00
-1920,37	641,00
-1910,86	646,00
-1901,36	688,00
-1891,88	658,00
-1882,41	670,00
-1872,95	672,00
-1863,51	739,00
-1854,08	721,00
-1844,66	747,00
-1835,26	729,00
-1825,86	648,00
-1816,48	661,00
-1807,11	694,00
-1797,76	718,00
-1788,42	656,00
-1779,09	709,00
-1769,77	714,00
-1760,47	753,00
-1751,17	631,00
-1741,89	612,00
-1732,63	711,00
-1723,37	867,00
-1714,13	782,00
-1704,90	691,00
-1695,68	842,00
-1686,48	554,00
-1677,29	611,00
-1668,11	789,00
-1658,94	620,00
-1649,78	680,00
-1640,64	773,00
-1631,51	612,00
-1622,39	764,00
-1613,28	648,00
-1604,19	830,00
-1595,10	686,00
-1586,03	687,00
-1576,97	721,00
-1567,93	666,00
-1558,89	727,00
-1549,87	775,00
-1540,86	638,00
-1531,86	648,00
-1522,87	597,00
-1513,90	651,00
-1504,93	716,00
-1495,98	757,00
-1487,04	734,00
-1478,12	647,00
-1469,20	686,00
-1460,30	728,00
-1451,40	750,00
-1442,52	707,00
-1433,65	762,00
-1424,80	622,00
-1415,95	702,00
-1407,12	795,00
-1398,30	652,00
-1389,48	775,00
-1380,69	625,00
-1371,90	618,00
-1363,12	771,00
-1354,36	784,00
-1345,60	746,00
-1336,86	664,00
-1328,13	798,00
-1319,41	753,00
-1310,70	632,00
-1302,01	641,00
-1293,32	554,00
-1284,65	685,00
-1275,99	742,00
-1267,33	748,00
-1258,69	678,00
-1250,06	676,00
-1241,45	601,00
-1232,84	818,00
-1224,25	686,00
-1215,66	649,00
-1207,09	745,00
-1198,53	690,00
-1189,97	699,00
-1181,43	651,00
-1172,91	708,00
-1164,39	789,00
-1155,88	590,00
-1147,38	547,00
-1138,90	699,00
-1130,43	634,00
-1121,96	690,00
-1113,51	646,00
-1105,07	726,00
-1096,64	692,00
-1088,22	660,00
-1079,81	719,00
-1071,41	747,00
-1063,02	617,00
-1054,65	759,00
-1046,28	681,00
-1037,92	718,00
-1029,58	741,00
-1021,24	709,00
-1012,92	941,00
-1004,61	726,00
-996,30	830,00
-988,01	587,00
-979,73	659,00
-971,46	754,00
-963,20	671,00
-954,95	539,00
-946,71	688,00
-938,48	743,00
-930,26	718,00
-922,06	739,00
-913,86	667,00
-905,67	633,00
-897,49	701,00
-889,33	523,00
-881,17	771,00
-873,02	659,00
-864,89	604,00
-856,76	569,00
-848,65	736,00
-840,54	733,00
-832,45	676,00
-824,36	533,00
-816,29	694,00
-808,22	682,00
-800,17	696,00
-792,12	655,00
-784,09	787,00
-776,06	576,00
-768,05	690,00
-760,04	633,00
-752,05	592,00
-744,07	781,00
-736,09	759,00
-728,13	570,00
-720,17	702,00
-712,23	637,00
-704,29	698,00
-696,37	645,00
-688,45	757,00
-680,55	645,00
-672,65	717,00
-664,77	690,00
-656,89	620,00
-649,03	649,00
-641,17	702,00
-633,32	659,00
-625,49	717,00
-617,66	691,00
-609,84	800,00
-602,03	640,00
-594,23	688,00
-586,45	690,00
-578,67	638,00
-570,90	682,00
-563,14	646,00
-555,39	718,00
-547,65	714,00
-539,91	698,00
-532,19	681,00
-524,48	786,00
-516,78	561,00
-509,08	747,00
-501,40	646,00
-493,72	690,00
-486,06	627,00
-478,40	777,00
-470,76	592,00
-463,12	625,00
-455,49	659,00
-447,87	608,00
-440,26	643,00
-432,66	684,00
-425,07	668,00
-417,49	780,00
-409,92	679,00
-402,35	657,00
-394,80	593,00
-387,25	736,00
-379,72	804,00
-372,19	697,00
-364,67	758,00
-357,17	656,00
-349,67	699,00
-342,18	711,00
-334,69	762,00
-327,22	742,00
-319,76	745,00
-312,30	726,00
-304,86	700,00
-297,42	746,00
-290,00	645,00
-282,58	749,00
-275,17	729,00
-267,77	856,00
-260,37	696,00
-252,99	767,00
-245,62	801,00
-238,25	759,00
-230,90	659,00
-223,55	851,00
-216,21	778,00
-208,88	925,00
-201,56	779,00
-194,25	917,00
-186,94	898,00
-179,65	825,00
-172,36	980,00
-165,08	977,00
-157,81	1062,00
-150,55	1017,00
-143,30	1110,00
-136,06	1128,00
-128,82	1185,00
-121,60	1211,00
-114,38	1395,00
-107,17	1488,00
-99,97	1726,00
-92,78	1592,00
-85,60	1760,00
-78,42	1995,00
-71,25	2159,00
-64,10	2366,00
-56,95	2719,00
-49,81	3162,00
-42,67	3782,00
-35,55	4362,00
-28,43	5867,00
-21,33	9212,00
-14,23	28731,00
-7,14	57498,00
-0,05	57284,00
7,02	57012,00
14,09	57319,00
21,14	25192,00
28,19	10981,00
35,23	7063,00
42,27	5694,00
49,29	4646,00
56,31	4078,00
63,32	3567,00
70,32	3002,00
77,31	2743,00
84,29	2335,00
91,27	2198,00
98,23	2089,00
105,19	2062,00
112,14	2143,00
119,09	3032,00
126,02	4409,00
132,95	5221,00
139,87	5347,00
146,78	5623,00
153,68	5592,00
160,58	5455,00
167,46	5360,00
174,34	5450,00
181,21	5441,00
188,08	5286,00
194,93	5361,00
201,78	5413,00
208,62	5371,00
215,45	5375,00
222,27	5500,00
229,09	5581,00
235,90	5392,00
242,70	5434,00
249,49	5573,00
256,27	5445,00
263,05	5316,00
269,82	5301,00
276,58	5348,00
283,33	5273,00
290,08	5207,00
296,82	5173,00
303,55	5072,00
310,27	5070,00
316,98	4959,00
323,69	5046,00
330,39	5049,00
337,08	5037,00
343,76	5142,00
350,44	5062,00
357,11	5074,00
363,77	5019,00
370,42	5138,00
377,07	5054,00
383,71	5090,00
390,34	5049,00
396,96	4957,00
403,58	5027,00
410,19	5175,00
416,79	5153,00
423,38	5190,00
429,97	5038,00
436,55	4897,00
443,12	4849,00
449,68	4854,00
456,24	4761,00
462,79	4840,00
469,33	4687,00
475,86	4676,00
482,39	4722,00
488,91	4801,00
495,42	4675,00
501,93	4661,00
508,42	4621,00
514,91	4623,00
521,40	4706,00
527,87	4576,00
534,34	4557,00
540,80	4469,00
547,25	4598,00
553,70	4563,00
560,14	4558,00
566,57	4671,00
573,00	4511,00
579,41	4534,00
585,83	4633,00
592,23	4508,00
598,62	4530,00
605,01	4455,00
611,40	4464,00
617,77	4491,00
624,14	4518,00
630,50	4409,00
636,85	4475,00
643,20	4468,00
649,54	4283,00
655,87	4397,00
662,20	4351,00
668,52	4434,00
674,83	4406,00
681,13	4241,00
687,43	4324,00
693,72	4173,00
700,00	4221,00
706,28	4201,00
712,55	4183,00
718,81	4256,00
725,07	4145,00
731,32	4218,00
737,56	4304,00
743,79	4241,00
750,02	4315,00
756,24	4105,00
762,46	4147,00
768,67	4368,00
774,87	4147,00
781,06	4121,00
787,25	4323,00
793,43	4146,00
799,60	4144,00
805,77	4249,00
811,93	4144,00
818,08	4247,00
824,23	4111,00
830,37	4381,00
836,50	4154,00
842,63	4115,00
848,75	4070,00
854,87	4127,00
860,97	4245,00
867,07	4055,00
873,17	4098,00
879,25	4022,00
885,33	4096,00
891,41	4129,00
897,47	4126,00
903,53	4041,00
909,59	4038,00
915,63	4012,00
921,67	3963,00
927,71	3981,00
933,74	4105,00
939,76	3884,00
945,77	3980,00
951,78	4032,00
957,78	3836,00
963,78	3965,00
969,77	4027,00
975,75	3869,00
981,72	3915,00
987,69	4807,00
993,66	4010,00
999,61	3945,00
1005,56	3852,00
1011,51	3941,00
1017,44	3875,00
1023,37	3987,00
1029,30	3865,00
1035,22	3959,00
1041,13	3871,00
1047,03	3948,00
1052,93	3890,00
1058,83	4225,00
1064,71	4341,00
1070,59	4178,00
1076,47	4007,00
1082,33	3921,00
1088,20	3995,00
1094,05	3836,00
1099,90	3632,00
1105,74	3917,00
1111,58	3848,00
1117,41	3821,00
1123,23	3963,00
1129,05	4071,00
1134,86	4039,00
1140,67	3960,00
1146,47	3864,00
1152,26	3836,00
1158,05	3837,00
1163,83	3851,00
1169,60	3873,00
1175,37	3740,00
1181,13	3913,00
1186,89	3737,00
1192,64	3653,00
1198,38	3914,00
1204,12	3721,00
1209,85	3746,00
1215,58	3671,00
1221,30	3764,00
1227,02	3839,00
1232,72	3726,00
1238,43	3723,00
1244,12	3782,00
1249,81	3745,00
1255,50	3823,00
1261,17	3869,00
1266,85	3816,00
1272,51	3813,00
1278,17	3916,00
1283,83	3842,00
1289,47	4076,00
1295,12	4301,00
1300,75	4321,00
1306,38	4137,00
1312,01	4004,00
1317,63	3835,00
1323,24	3926,00
1328,85	3947,00
1334,45	3825,00
1340,04	3885,00
1345,63	3874,00
1351,22	4011,00
1356,80	3902,00
1362,37	3927,00
1367,93	4007,00
1373,49	3952,00
1379,05	3827,00
1384,60	3888,00
1390,14	3925,00
1395,68	4004,00
1401,21	3942,00
1406,74	3993,00
1412,26	4005,00
1417,77	4377,00
1423,28	4041,00
1428,78	4265,00
1434,28	4436,00
1439,77	4474,00
1445,26	4513,00
1450,74	4434,00
1456,22	4296,00
1461,68	4308,00
1467,15	4211,00
1472,61	4043,00
1478,06	4061,00
1483,51	3929,00
1488,95	3682,00
1494,38	3844,00
1499,81	3677,00
1505,24	3671,00
1510,65	3695,00
1516,07	3663,00
1521,48	3608,00
1526,88	3607,00
1532,27	3672,00
1537,67	3629,00
1543,05	3580,00
1548,43	3435,00
1553,81	3658,00
1559,18	3503,00
1564,54	3544,00
1569,90	3524,00
1575,25	3533,00
1580,60	3317,00
1585,94	3566,00
1591,28	3465,00
1596,61	3587,00
1601,93	3428,00
1607,25	3473,00
1612,57	3382,00
1617,88	3412,00
1623,18	3500,00
1628,48	3422,00
1633,77	3440,00
1639,06	3542,00
1644,34	3320,00
1649,62	3226,00
1654,89	3304,00
1660,16	3294,00
1665,42	3487,00
1670,67	3408,00
1675,92	3161,00
1681,17	3250,00
1686,41	3297,00
1691,64	3198,00
1696,87	3238,00
1702,10	3213,00
1707,32	3274,00
1712,53	3232,00
1717,74	3209,00
1722,94	3365,00
1728,14	3075,00
1733,33	3174,00
1738,52	3022,00
1743,70	3105,00
1748,88	3074,00
1754,05	3185,00
1759,22	3001,00
1764,38	2172,00
1769,53	3102,00
1774,69	3109,00
1779,83	2974,00
1784,97	2997,00
1790,11	3011,00
1795,24	2922,00
1800,36	2981,00
1805,48	2844,00
1810,60	2935,00
1815,71	2973,00
1820,82	2869,00
1825,92	2965,00
1831,01	2815,00
1836,10	2890,00
1841,19	2839,00
1846,26	2769,00
1851,34	2931,00
1856,41	2884,00
1861,47	2768,00
1866,53	2887,00
1871,59	2870,00
1876,64	2837,00
1881,68	2804,00
1886,72	2745,00
1891,76	2715,00
1896,79	2681,00
1901,81	2688,00
1906,83	2646,00
1911,85	2585,00
1916,86	2672,00
1921,86	2642,00
1926,86	2610,00
1931,86	2701,00
1936,85	2633,00
1941,83	2570,00
1946,81	2526,00
1951,79	2484,00
1956,76	2522,00
1961,72	2372,00
1966,68	2498,00
1971,64	2484,00
1976,59	2530,00
1981,54	2485,00
1986,48	2530,00
1991,42	2392,00
1996,35	2645,00
2001,27	2448,00
2006,20	2473,00
2011,11	2457,00
2016,03	2449,00
2020,93	2357,00
2025,84	2477,00
2030,73	2400,00
2035,63	2282,00
2040,52	2356,00
2045,40	2346,00
2050,28	2292,00
2055,15	2450,00
2060,02	2231,00
2064,89	2416,00
2069,75	2442,00
2074,60	2442,00
2079,46	2244,00
2084,30	2298,00
2089,14	2224,00
2093,98	2389,00
2098,81	2317,00
2103,64	2372,00
2108,46	2240,00
2113,28	2301,00
2118,09	2313,00
2122,90	2300,00
2127,70	2289,00
2132,50	2320,00
2137,30	2338,00
2142,09	2161,00
2146,87	2207,00
2151,66	2214,00
2156,43	2133,00
2161,20	2248,00
2165,97	2178,00
2170,73	2067,00
2175,49	2240,00
2180,24	2216,00
2184,99	2269,00
2189,74	2274,00
2194,48	2256,00
2199,21	2223,00
2203,94	2181,00
2208,67	2076,00
2213,39	1955,00
2218,11	2118,00
2222,82	2045,00
2227,53	2158,00
2232,23	2027,00
2236,93	2101,00
2241,63	1997,00
2246,32	2059,00
2251,00	1978,00
2255,68	2076,00
2260,36	1917,00
2265,03	2066,00
2269,70	2205,00
2274,36	1969,00
2279,02	2068,00
2283,68	2028,00
2288,33	2027,00
2292,97	2078,00
2297,61	1946,00
2302,25	2082,00
2306,88	1956,00
2311,51	1889,00
2316,14	1870,00
2320,75	1898,00
2325,37	1757,00
2329,98	1979,00
2334,59	1934,00
2339,19	1832,00
2343,79	1752,00
2348,38	1907,00
2352,97	1841,00
2357,55	1809,00
2362,13	1838,00
2366,71	1795,00
2371,28	1894,00
2375,85	1806,00
2380,41	1847,00
2384,97	1728,00
2389,52	1843,00
2394,07	1896,00
2398,62	1761,00
2403,16	1851,00
2407,70	1667,00
2412,23	1811,00
2416,76	1758,00
2421,29	1761,00
2425,81	1814,00
2430,32	1740,00
2434,84	1630,00
2439,34	1661,00
2443,85	1802,00
2448,35	1747,00
2452,84	1717,00
2457,33	1643,00
2461,82	1573,00
2466,30	1615,00
2470,78	1754,00
2475,25	1689,00
2479,72	1684,00
2484,19	1762,00
2488,65	1677,00
2493,11	1539,00
2497,56	1808,00
2502,01	1560,00
2506,46	1689,00
2510,90	1544,00
2515,34	1472,00
2519,77	1586,00
2524,20	1492,00
2528,62	1665,00
2533,04	1599,00
2537,46	1527,00
2541,87	1583,00
2546,28	1570,00
2550,68	1685,00
2555,08	1591,00
2559,48	1597,00
2563,87	1445,00
2568,26	1450,00
2572,64	1506,00
2577,02	1542,00
2581,40	1393,00
2585,77	1488,00
2590,14	1426,00
2594,50	1382,00
2598,86	1501,00
2603,22	1444,00
2607,57	1340,00
2611,92	1440,00
2616,26	1510,00
2620,60	1590,00
2624,94	1390,00
2629,27	1427,00
2633,60	1299,00
2637,92	1480,00
2642,24	1508,00
2646,56	1351,00
2650,87	1259,00
2655,18	1490,00
2659,48	1310,00
2663,78	1356,00
2668,08	1285,00
2672,37	1335,00
2676,66	1382,00
2680,95	1265,00
2685,23	1542,00
2689,50	1361,00
2693,78	1352,00
2698,05	1282,00
2702,31	1418,00
2706,57	1456,00
2710,83	1436,00
2715,08	1513,00
2719,33	1543,00
2723,58	1437,00
2727,82	1490,00
2732,06	1387,00
2736,29	1311,00
2740,53	1341,00
2744,75	1296,00
2748,97	1336,00
2753,19	1369,00
2757,41	1375,00
2761,62	1356,00
2765,83	1427,00
2770,03	1233,00
2774,23	1365,00
2778,43	1210,00
2782,62	1311,00
2786,81	1271,00
2791,00	1385,00
2795,18	1368,00
2799,35	1416,00
2803,53	1319,00
2807,70	1322,00
2811,86	1364,00
2816,03	1425,00
2820,19	1445,00
2824,34	1321,00
2828,49	1385,00
2832,64	1497,00
2836,78	1612,00
2840,92	1641,00
2845,06	1867,00
2849,19	1936,00
2853,32	1997,00
2857,45	1903,00
2861,57	1953,00
2865,69	1979,00
2869,80	1839,00
2873,91	1914,00
2878,02	2045,00
2882,12	1977,00
2886,22	1953,00
2890,32	1888,00
2894,41	1910,00
2898,50	1761,00
2902,58	1908,00
2906,67	1776,00
2910,74	1618,00
2914,82	1688,00
2918,89	1642,00
2922,96	1529,00
2927,02	1455,00
2931,08	1493,00
2935,13	1306,00
2939,19	1434,00
2943,24	1285,00
2947,28	1398,00
2951,32	1301,00
2955,36	1217,00
2959,40	1347,00
2963,43	1211,00
2967,46	1188,00
2971,48	1223,00
2975,50	1057,00
2979,52	1242,00
2983,53	1129,00
2987,54	1167,00
2991,55	1147,00
2995,55	1120,00
2999,55	1091,00
3003,54	1014,00
3007,54	1043,00
3011,53	1101,00
3015,51	1050,00
3019,49	1066,00
3023,47	950,00
3027,45	1018,00
3031,42	1033,00
3035,39	990,00
3039,35	985,00
3043,31	1062,00
3047,27	1052,00
3051,22	1126,00
3055,17	957,00
3059,12	973,00
3063,06	1031,00
3067,00	898,00
3070,94	918,00
3074,87	1135,00
3078,80	939,00
3082,73	1010,00
3086,65	997,00
3090,57	977,00
3094,49	917,00
3098,40	952,00
3102,31	862,00
3106,22	986,00
3110,12	919,00
3114,02	879,00
3117,92	917,00
3121,81	964,00
3125,70	953,00
3129,58	849,00
3133,47	773,00
3137,34	931,00
3141,22	912,00
3145,09	886,00
3148,96	993,00
3152,83	900,00
3156,69	962,00
3160,55	876,00
3164,40	947,00
3168,26	959,00
3172,10	1022,00
3175,95	926,00
3179,79	950,00
3183,63	896,00
3187,47	798,00
3191,30	871,00
3195,13	916,00
3198,95	758,00
3202,78	861,00
3206,60	827,00
3210,41	732,00
3214,23	870,00
3218,03	839,00
3221,84	866,00
3225,64	868,00
3229,44	824,00
3233,24	899,00
3237,03	846,00
3240,82	825,00
3244,61	875,00
3248,39	826,00
3252,17	838,00
3255,95	948,00
3259,72	912,00
3263,49	899,00
3267,26	812,00
3271,03	886,00
3274,79	808,00
3278,54	873,00
3282,30	717,00
3286,05	875,00
3289,80	820,00
3293,54	848,00
3297,29	829,00
3301,02	732,00
3304,76	755,00
3308,49	859,00
3312,22	750,00
3315,95	837,00
3319,67	741,00
3323,39	903,00
3327,10	863,00
3330,82	769,00
3334,53	810,00
3338,24	840,00
3341,94	762,00
3345,64	805,00
3349,34	793,00
3353,03	792,00
3356,72	776,00
3360,41	774,00
3364,10	699,00
3367,78	821,00
3371,46	704,00
3375,13	799,00
3378,81	831,00
3382,48	697,00
3386,14	858,00
3389,81	847,00
3393,47	758,00
3397,12	902,00
3400,78	809,00
3404,43	733,00
3408,08	847,00
3411,72	751,00
3415,36	675,00
3419,00	807,00
3422,64	731,00
3426,27	749,00
3429,90	772,00
3433,53	646,00
3437,15	616,00
3440,77	629,00
3444,39	714,00
3448,00	681,00
3451,62	697,00
3455,22	729,00
3458,83	648,00
3462,43	776,00
3466,03	807,00
3469,63	667,00
3473,22	733,00
3476,81	663,00
3480,40	841,00
3483,99	666,00
3487,57	728,00
3491,15	688,00
3494,72	729,00
3498,29	786,00
3501,86	621,00
3505,43	768,00
3508,99	655,00
3512,56	603,00
3516,11	704,00
3519,67	752,00
3523,22	724,00
3526,77	581,00
3530,32	853,00
3533,86	743,00
3537,40	699,00
3540,94	728,00
3544,47	692,00
3548,00	680,00
3551,53	686,00
3555,06	682,00
3558,58	721,00
3562,10	734,00
3565,62	563,00
3569,13	747,00
3572,64	736,00
3576,15	688,00
3579,66	627,00
3583,16	656,00
3586,66	758,00
3590,16	689,00
3593,65	608,00
3597,14	656,00
3600,63	695,00
3604,11	732,00
3607,60	610,00
3611,08	681,00
3614,55	714,00
3618,03	609,00
3621,50	567,00
3624,97	584,00
3628,43	614,00
3631,90	539,00
3635,36	596,00
3638,81	621,00
3642,27	652,00
3645,72	620,00
3649,17	541,00
3652,61	602,00
3656,06	535,00
3659,50	603,00
3662,93	633,00
3666,37	626,00
3669,80	737,00
3673,23	696,00
3676,65	664,00
3680,08	730,00
3683,50	602,00
3686,92	647,00
3690,33	528,00
3693,74	619,00
3697,15	557,00
3700,56	664,00
3703,96	639,00
3707,36	481,00
3710,76	524,00
3714,16	564,00
3717,55	589,00
3720,94	568,00
3724,33	534,00
3727,71	670,00
3731,10	575,00
3734,48	597,00
3737,85	498,00
3741,23	538,00
3744,60	517,00
3747,97	500,00
3751,33	703,00
3754,69	610,00
3758,05	561,00
3761,41	543,00
3764,77	457,00
3768,12	521,00
3771,47	489,00
3774,82	565,00
3778,16	-10,00
3781,50	9,00
3784,84	5,00
3788,18	6,00
>>>>>End Processed Spectral Data<<<<<
