SpectraSuite Data File
++++++++++++++++++++++++++++++++++++
Date: Mon Jan 05 16:24:25 ICT 2026
User: Administrator
Dark Spectrum Present: Yes
Reference Spectrum Present: No
Number of Sampled Component Spectra: 1
Spectrometers: MAYP113682
Integration Time (usec): 3000000 (MAYP113682)
Spectra Averaged: 1 (MAYP113682)
Boxcar Smoothing: 0 (MAYP113682)
Correct for Electrical Dark: No (MAYP113682)
Strobe/Lamp Enabled: No (MAYP113682)
Correct for Detector Non-linearity: No (MAYP113682)
Correct for Stray Light: No (MAYP113682)
Number of Pixels in Processed Spectrum: 2068
>>>>>Begin Processed Spectral Data<<<<<
-37534,58	18,00
-37414,56	2,00
-37295,11	5,00
-37176,24	-4,00
-37057,95	229,00
-36940,22	338,00
-36823,05	326,00
-36706,45	273,00
-36590,40	342,00
-36474,90	304,00
-36359,95	371,00
-36245,55	404,00
-36131,68	253,00
-36018,35	372,00
-35905,55	283,00
-35793,29	394,00
-35681,54	309,00
-35570,32	249,00
-35459,62	399,00
-35349,43	400,00
-35239,75	371,00
-35130,58	343,00
-35021,91	327,00
-34913,74	347,00
-34806,07	337,00
-34698,89	355,00
-34592,20	306,00
-34486,00	349,00
-34380,28	453,00
-34275,04	297,00
-34170,27	295,00
-34065,98	388,00
-33962,16	359,00
-33858,81	359,00
-33755,92	289,00
-33653,49	470,00
-33551,52	461,00
-33450,01	439,00
-33348,94	386,00
-33248,33	265,00
-33148,16	372,00
-33048,43	273,00
-32949,14	493,00
-32850,29	383,00
-32751,87	279,00
-32653,89	448,00
-32556,33	357,00
-32459,20	374,00
-32362,49	430,00
-32266,19	393,00
-32170,32	277,00
-32074,86	453,00
-31979,82	429,00
-31885,18	444,00
-31790,95	450,00
-31697,12	447,00
-31603,69	463,00
-31510,67	369,00
-31418,04	423,00
-31325,80	342,00
-31233,95	267,00
-31142,49	443,00
-31051,42	362,00
-30960,73	371,00
-30870,43	444,00
-30780,50	394,00
-30690,95	415,00
-30601,77	412,00
-30512,97	393,00
-30424,53	356,00
-30336,46	347,00
-30248,76	444,00
-30161,42	408,00
-30074,44	424,00
-29987,81	427,00
-29901,55	490,00
-29815,63	351,00
-29730,07	366,00
-29644,86	454,00
-29560,00	458,00
-29475,48	371,00
-29391,30	458,00
-29307,47	376,00
-29223,97	365,00
-29140,81	340,00
-29057,99	381,00
-28975,50	290,00
-28893,34	547,00
-28811,51	391,00
-28730,00	400,00
-28648,82	457,00
-28567,97	393,00
-28487,43	377,00
-28407,21	357,00
-28327,32	326,00
-28247,73	449,00
-28168,46	370,00
-28089,50	386,00
-28010,85	337,00
-27932,51	356,00
-27854,48	387,00
-27776,75	280,00
-27699,32	386,00
-27622,19	332,00
-27545,37	387,00
-27468,84	405,00
-27392,60	302,00
-27316,66	352,00
-27241,01	407,00
-27165,66	358,00
-27090,59	272,00
-27015,81	455,00
-26941,31	356,00
-26867,10	326,00
-26793,17	516,00
-26719,52	383,00
-26646,15	390,00
-26573,06	390,00
-26500,24	350,00
-26427,70	417,00
-26355,43	341,00
-26283,43	386,00
-26211,71	395,00
-26140,25	397,00
-26069,06	368,00
-25998,13	340,00
-25927,46	279,00
-25857,06	282,00
-25786,92	375,00
-25717,04	366,00
-25647,42	373,00
-25578,05	348,00
-25508,94	350,00
-25440,09	398,00
-25371,48	333,00
-25303,13	413,00
-25235,02	367,00
-25167,17	344,00
-25099,56	341,00
-25032,19	390,00
-24965,07	216,00
-24898,20	338,00
-24831,56	234,00
-24765,17	444,00
-24699,01	299,00
-24633,10	359,00
-24567,41	405,00
-24501,97	276,00
-24436,75	396,00
-24371,77	322,00
-24307,03	354,00
-24242,51	416,00
-24178,22	318,00
-24114,16	303,00
-24050,32	321,00
-23986,71	416,00
-23923,32	377,00
-23860,16	424,00
-23797,22	322,00
-23734,50	393,00
-23672,00	385,00
-23609,71	391,00
-23547,65	296,00
-23485,80	490,00
-23424,16	251,00
-23362,74	433,00
-23301,53	286,00
-23240,54	274,00
-23179,75	389,00
-23119,17	350,00
-23058,80	362,00
-22998,64	456,00
-22938,68	329,00
-22878,93	318,00
-22819,39	322,00
-22760,04	315,00
-22700,90	295,00
-22641,96	415,00
-22583,22	378,00
-22524,68	355,00
-22466,33	346,00
-22408,19	424,00
-22350,23	240,00
-22292,48	301,00
-22234,92	328,00
-22177,55	422,00
-22120,37	394,00
-22063,38	275,00
-22006,58	364,00
-21949,98	370,00
-21893,56	291,00
-21837,33	353,00
-21781,28	328,00
-21725,42	381,00
-21669,74	415,00
-21614,25	329,00
-21558,94	326,00
-21503,81	398,00
-21448,86	535,00
-21394,10	326,00
-21339,51	341,00
-21285,10	312,00
-21230,86	331,00
-21176,81	369,00
-21122,93	371,00
-21069,22	272,00
-21015,69	424,00
-20962,33	365,00
-20909,14	401,00
-20856,13	321,00
-20803,28	421,00
-20750,61	374,00
-20698,10	248,00
-20645,76	243,00
-20593,59	438,00
-20541,59	445,00
-20489,75	351,00
-20438,07	277,00
-20386,56	374,00
-20335,22	277,00
-20284,03	295,00
-20233,01	281,00
-20182,15	317,00
-20131,45	369,00
-20080,91	237,00
-20030,52	381,00
-19980,30	344,00
-19930,23	311,00
-19880,32	406,00
-19830,56	280,00
-19780,96	388,00
-19731,52	270,00
-19682,23	361,00
-19633,09	326,00
-19584,10	296,00
-19535,26	388,00
-19486,58	440,00
-19438,04	387,00
-19389,66	413,00
-19341,42	320,00
-19293,33	342,00
-19245,39	342,00
-19197,60	386,00
-19149,95	443,00
-19102,45	328,00
-19055,09	330,00
-19007,87	269,00
-18960,80	351,00
-18913,87	336,00
-18867,09	311,00
-18820,44	430,00
-18773,94	348,00
-18727,57	390,00
-18681,35	301,00
-18635,26	354,00
-18589,31	300,00
-18543,50	309,00
-18497,83	293,00
-18452,29	360,00
-18406,89	282,00
-18361,63	376,00
-18316,50	424,00
-18271,50	353,00
-18226,63	388,00
-18181,90	375,00
-18137,30	428,00
-18092,84	345,00
-18048,50	385,00
-18004,29	372,00
-17960,22	358,00
-17916,27	333,00
-17872,45	399,00
-17828,76	448,00
-17785,20	341,00
-17741,77	363,00
-17698,46	348,00
-17655,28	395,00
-17612,22	403,00
-17569,29	370,00
-17526,48	372,00
-17483,79	392,00
-17441,23	268,00
-17398,79	435,00
-17356,48	292,00
-17314,28	428,00
-17272,21	347,00
-17230,26	351,00
-17188,42	378,00
-17146,71	342,00
-17105,12	300,00
-17063,64	385,00
-17022,28	355,00
-16981,04	198,00
-16939,92	399,00
-16898,91	452,00
-16858,02	311,00
-16817,25	409,00
-16776,59	392,00
-16736,04	333,00
-16695,61	366,00
-16655,29	322,00
-16615,09	279,00
-16574,99	330,00
-16535,01	357,00
-16495,15	367,00
-16455,39	429,00
-16415,74	340,00
-16376,21	333,00
-16336,78	357,00
-16297,46	410,00
-16258,26	254,00
-16219,16	356,00
-16180,17	389,00
-16141,28	349,00
-16102,51	431,00
-16063,84	310,00
-16025,27	399,00
-15986,82	299,00
-15948,46	382,00
-15910,22	392,00
-15872,07	313,00
-15834,04	353,00
-15796,10	363,00
-15758,27	496,00
-15720,54	350,00
-15682,91	332,00
-15645,39	483,00
-15607,97	369,00
-15570,64	301,00
-15533,42	361,00
-15496,30	338,00
-15459,28	374,00
-15422,36	382,00
-15385,54	347,00
-15348,82	307,00
-15312,19	446,00
-15275,66	311,00
-15239,23	422,00
-15202,90	281,00
-15166,67	394,00
-15130,53	491,00
-15094,48	390,00
-15058,54	279,00
-15022,68	379,00
-14986,93	353,00
-14951,26	392,00
-14915,69	395,00
-14880,22	338,00
-14844,84	382,00
-14809,55	347,00
-14774,35	328,00
-14739,25	278,00
-14704,24	453,00
-14669,32	307,00
-14634,49	313,00
-14599,75	339,00
-14565,10	316,00
-14530,55	432,00
-14496,08	380,00
-14461,70	411,00
-14427,41	342,00
-14393,21	318,00
-14359,10	289,00
-14325,07	380,00
-14291,14	366,00
-14257,29	348,00
-14223,52	339,00
-14189,85	425,00
-14156,26	325,00
-14122,76	302,00
-14089,34	317,00
-14056,01	398,00
-14022,76	309,00
-13989,60	378,00
-13956,52	435,00
-13923,53	414,00
-13890,62	282,00
-13857,79	373,00
-13825,05	301,00
-13792,39	285,00
-13759,81	393,00
-13727,31	334,00
-13694,90	379,00
-13662,57	413,00
-13630,31	409,00
-13598,14	370,00
-13566,05	295,00
-13534,05	426,00
-13502,12	350,00
-13470,27	364,00
-13438,50	402,00
-13406,80	283,00
-13375,19	348,00
-13343,66	418,00
-13312,20	371,00
-13280,83	294,00
-13249,53	418,00
-13218,30	288,00
-13187,16	348,00
-13156,09	519,00
-13125,10	367,00
-13094,18	375,00
-13063,34	385,00
-13032,58	357,00
-13001,89	310,00
-12971,28	370,00
-12940,74	342,00
-12910,27	319,00
-12879,88	398,00
-12849,57	385,00
-12819,33	470,00
-12789,16	383,00
-12759,06	388,00
-12729,04	285,00
-12699,09	966,00
-12669,21	402,00
-12639,41	384,00
-12609,68	327,00
-12580,02	300,00
-12550,43	406,00
-12520,91	310,00
-12491,46	417,00
-12462,08	322,00
-12432,77	348,00
-12403,54	278,00
-12374,37	262,00
-12345,27	340,00
-12316,24	384,00
-12287,29	328,00
-12258,40	352,00
-12229,57	397,00
-12200,82	288,00
-12172,14	357,00
-12143,52	291,00
-12114,97	382,00
-12086,49	344,00
-12058,07	378,00
-12029,73	308,00
-12001,44	434,00
-11973,23	401,00
-11945,08	355,00
-11917,00	288,00
-11888,98	308,00
-11861,03	454,00
-11833,15	373,00
-11805,32	414,00
-11777,57	328,00
-11749,88	389,00
-11722,25	269,00
-11694,69	281,00
-11667,19	398,00
-11639,75	384,00
-11612,38	253,00
-11585,07	324,00
-11557,83	366,00
-11530,65	491,00
-11503,53	292,00
-11476,47	308,00
-11449,48	372,00
-11422,54	383,00
-11395,67	373,00
-11368,86	438,00
-11342,11	250,00
-11315,43	334,00
-11288,80	391,00
-11262,23	360,00
-11235,73	441,00
-11209,28	533,00
-11182,90	310,00
-11156,57	226,00
-11130,31	400,00
-11104,10	417,00
-11077,96	364,00
-11051,87	361,00
-11025,84	354,00
-10999,87	400,00
-10973,96	300,00
-10948,11	346,00
-10922,31	402,00
-10896,58	389,00
-10870,90	435,00
-10845,28	365,00
-10819,71	352,00
-10794,20	412,00
-10768,75	383,00
-10743,36	444,00
-10718,02	344,00
-10692,74	382,00
-10667,52	384,00
-10642,35	300,00
-10617,24	418,00
-10592,18	346,00
-10567,18	393,00
-10542,23	352,00
-10517,34	337,00
-10492,51	393,00
-10467,72	377,00
-10443,00	377,00
-10418,32	419,00
-10393,70	402,00
-10369,14	335,00
-10344,63	326,00
-10320,17	429,00
-10295,77	381,00
-10271,42	342,00
-10247,12	375,00
-10222,88	400,00
-10198,68	424,00
-10174,54	364,00
-10150,46	511,00
-10126,42	519,00
-10102,44	345,00
-10078,51	337,00
-10054,63	509,00
-10030,80	369,00
-10007,03	382,00
-9983,30	437,00
-9959,63	464,00
-9936,01	475,00
-9912,44	447,00
-9888,92	485,00
-9865,44	384,00
-9842,02	405,00
-9818,65	484,00
-9795,33	374,00
-9772,06	380,00
-9748,84	417,00
-9725,67	444,00
-9702,55	455,00
-9679,47	492,00
-9656,45	545,00
-9633,47	451,00
-9610,55	523,00
-9587,67	557,00
-9564,84	611,00
-9542,06	645,00
-9519,32	637,00
-9496,64	759,00
-9474,00	597,00
-9451,41	732,00
-9428,87	674,00
-9406,37	757,00
-9383,92	613,00
-9361,52	765,00
-9339,17	787,00
-9316,86	694,00
-9294,60	912,00
-9272,38	847,00
-9250,21	960,00
-9228,09	914,00
-9206,01	1050,00
-9183,98	867,00
-9162,00	833,00
-9140,06	1064,00
-9118,16	887,00
-9096,31	832,00
-9074,51	832,00
-9052,75	925,00
-9031,04	947,00
-9009,37	889,00
-8987,74	735,00
-8966,16	846,00
-8944,63	841,00
-8923,14	881,00
-8901,69	683,00
-8880,29	705,00
-8858,93	730,00
-8837,61	792,00
-8816,34	801,00
-8795,11	834,00
-8773,92	623,00
-8752,78	739,00
-8731,68	659,00
-8710,62	727,00
-8689,61	589,00
-8668,63	676,00
-8647,70	727,00
-8626,82	826,00
-8605,97	832,00
-8585,17	764,00
-8564,41	699,00
-8543,69	676,00
-8523,01	666,00
-8502,37	855,00
-8481,78	644,00
-8461,23	536,00
-8440,71	716,00
-8420,24	653,00
-8399,81	767,00
-8379,42	729,00
-8359,08	620,00
-8338,77	629,00
-8318,50	568,00
-8298,27	562,00
-8278,09	716,00
-8257,94	614,00
-8237,83	635,00
-8217,76	724,00
-8197,74	642,00
-8177,75	705,00
-8157,80	486,00
-8137,89	588,00
-8118,02	442,00
-8098,19	567,00
-8078,40	635,00
-8058,65	540,00
-8038,93	598,00
-8019,26	590,00
-7999,62	608,00
-7980,02	568,00
-7960,46	444,00
-7940,94	499,00
-7921,46	447,00
-7902,01	574,00
-7882,60	730,00
-7863,23	509,00
-7843,90	462,00
-7824,61	506,00
-7805,35	619,00
-7786,13	463,00
-7766,95	568,00
-7747,80	556,00
-7728,69	534,00
-7709,62	601,00
-7690,59	606,00
-7671,59	554,00
-7652,63	532,00
-7633,70	506,00
-7614,81	619,00
-7595,96	516,00
-7577,15	540,00
-7558,37	429,00
-7539,62	517,00
-7520,91	461,00
-7502,24	537,00
-7483,60	468,00
-7465,00	539,00
-7446,44	616,00
-7427,91	490,00
-7409,41	471,00
-7390,95	492,00
-7372,53	398,00
-7354,14	450,00
-7335,78	408,00
-7317,46	394,00
-7299,18	340,00
-7280,92	463,00
-7262,71	531,00
-7244,52	473,00
-7226,38	433,00
-7208,26	361,00
-7190,18	367,00
-7172,14	415,00
-7154,12	495,00
-7136,15	432,00
-7118,20	506,00
-7100,29	498,00
-7082,41	536,00
-7064,57	434,00
-7046,76	405,00
-7028,98	392,00
-7011,24	394,00
-6993,53	325,00
-6975,85	475,00
-6958,20	421,00
-6940,59	405,00
-6923,01	357,00
-6905,46	554,00
-6887,94	346,00
-6870,46	-1764,00
-6853,01	492,00
-6835,59	413,00
-6818,21	351,00
-6800,85	395,00
-6783,53	432,00
-6766,24	416,00
-6748,98	435,00
-6731,76	462,00
-6714,56	421,00
-6697,40	381,00
-6680,26	329,00
-6663,16	380,00
-6646,09	435,00
-6629,05	432,00
-6612,05	353,00
-6595,07	366,00
-6578,13	406,00
-6561,21	308,00
-6544,33	489,00
-6527,47	328,00
-6510,65	436,00
-6493,86	322,00
-6477,10	393,00
-6460,36	459,00
-6443,66	416,00
-6426,99	397,00
-6410,35	328,00
-6393,74	474,00
-6377,16	256,00
-6360,61	373,00
-6344,09	326,00
-6327,59	320,00
-6311,13	476,00
-6294,70	331,00
-6278,29	304,00
-6261,92	292,00
-6245,58	356,00
-6229,26	382,00
-6212,97	465,00
-6196,72	242,00
-6180,49	467,00
-6164,29	369,00
-6148,12	496,00
-6131,98	475,00
-6115,86	373,00
-6099,78	407,00
-6083,72	410,00
-6067,69	410,00
-6051,69	349,00
-6035,72	448,00
-6019,78	373,00
-6003,87	411,00
-5987,98	300,00
-5972,12	257,00
-5956,29	411,00
-5940,49	271,00
-5924,71	485,00
-5908,96	387,00
-5893,24	407,00
-5877,55	378,00
-5861,89	414,00
-5846,25	330,00
-5830,64	422,00
-5815,05	384,00
-5799,50	386,00
-5783,97	392,00
-5768,47	357,00
-5752,99	460,00
-5737,55	292,00
-5722,12	397,00
-5706,73	334,00
-5691,36	409,00
-5676,02	276,00
-5660,71	356,00
-5645,42	338,00
-5630,16	407,00
-5614,92	512,00
-5599,71	313,00
-5584,53	374,00
-5569,37	442,00
-5554,24	1156,00
-5539,14	310,00
-5524,06	435,00
-5509,01	397,00
-5493,98	397,00
-5478,98	423,00
-5464,00	378,00
-5449,05	401,00
-5434,13	418,00
-5419,23	400,00
-5404,36	349,00
-5389,51	367,00
-5374,69	328,00
-5359,89	337,00
-5345,12	422,00
-5330,37	450,00
-5315,65	252,00
-5300,95	401,00
-5286,28	295,00
-5271,63	278,00
-5257,01	333,00
-5242,41	413,00
-5227,84	287,00
-5213,29	459,00
-5198,76	391,00
-5184,26	382,00
-5169,79	366,00
-5155,33	391,00
-5140,91	392,00
-5126,51	368,00
-5112,13	350,00
-5097,77	305,00
-5083,44	475,00
-5069,13	346,00
-5054,85	341,00
-5040,59	403,00
-5026,36	448,00
-5012,15	434,00
-4997,96	421,00
-4983,80	441,00
-4969,66	352,00
-4955,54	269,00
-4941,44	359,00
-4927,37	293,00
-4913,33	353,00
-4899,30	248,00
-4885,30	303,00
-4871,33	223,00
-4857,37	293,00
-4843,44	244,00
-4829,53	424,00
-4815,65	387,00
-4801,79	340,00
-4787,95	338,00
-4774,13	414,00
-4760,34	314,00
-4746,56	464,00
-4732,82	353,00
-4719,09	314,00
-4705,38	335,00
-4691,70	436,00
-4678,04	469,00
-4664,41	330,00
-4650,79	412,00
-4637,20	311,00
-4623,63	361,00
-4610,08	430,00
-4596,56	293,00
-4583,05	369,00
-4569,57	380,00
-4556,11	414,00
-4542,67	365,00
-4529,25	319,00
-4515,86	282,00
-4502,49	440,00
-4489,13	371,00
-4475,80	466,00
-4462,49	277,00
-4449,21	412,00
-4435,94	382,00
-4422,70	213,00
-4409,47	209,00
-4396,27	390,00
-4383,09	278,00
-4369,93	361,00
-4356,79	349,00
-4343,67	457,00
-4330,58	374,00
-4317,50	416,00
-4304,45	389,00
-4291,41	356,00
-4278,40	372,00
-4265,41	311,00
-4252,44	348,00
-4239,49	282,00
-4226,55	304,00
-4213,65	349,00
-4200,76	379,00
-4187,89	409,00
-4175,04	301,00
-4162,21	272,00
-4149,40	371,00
-4136,61	349,00
-4123,85	322,00
-4111,10	281,00
-4098,37	407,00
-4085,66	332,00
-4072,98	384,00
-4060,31	281,00
-4047,66	405,00
-4035,04	471,00
-4022,43	352,00
-4009,84	265,00
-3997,27	263,00
-3984,72	373,00
-3972,19	434,00
-3959,69	403,00
-3947,20	341,00
-3934,73	412,00
-3922,27	303,00
-3909,84	349,00
-3897,43	410,00
-3885,04	339,00
-3872,67	366,00
-3860,31	387,00
-3847,98	406,00
-3835,66	296,00
-3823,36	399,00
-3811,09	347,00
-3798,83	372,00
-3786,59	374,00
-3774,37	441,00
-3762,17	284,00
-3749,98	379,00
-3737,82	379,00
-3725,67	447,00
-3713,55	369,00
-3701,44	444,00
-3689,35	368,00
-3677,28	454,00
-3665,22	372,00
-3653,19	411,00
-3641,17	331,00
-3629,18	383,00
-3617,20	351,00
-3605,24	373,00
-3593,30	389,00
-3581,37	474,00
-3569,47	414,00
-3557,58	409,00
-3545,71	342,00
-3533,86	367,00
-3522,02	389,00
-3510,21	409,00
-3498,41	422,00
-3486,63	327,00
-3474,87	375,00
-3463,12	338,00
-3451,40	405,00
-3439,69	296,00
-3428,00	298,00
-3416,33	383,00
-3404,67	277,00
-3393,03	304,00
-3381,41	485,00
-3369,81	444,00
-3358,22	441,00
-3346,66	408,00
-3335,10	355,00
-3323,57	258,00
-3312,06	369,00
-3300,56	313,00
-3289,08	307,00
-3277,61	395,00
-3266,16	436,00
-3254,73	302,00
-3243,32	323,00
-3231,92	360,00
-3220,55	446,00
-3209,18	504,00
-3197,84	331,00
-3186,51	360,00
-3175,20	391,00
-3163,90	317,00
-3152,63	417,00
-3141,36	329,00
-3130,12	329,00
-3118,89	424,00
-3107,68	368,00
-3096,49	386,00
-3085,31	294,00
-3074,15	441,00
-3063,00	339,00
-3051,87	344,00
-3040,76	407,00
-3029,67	434,00
-3018,59	417,00
-3007,52	478,00
-2996,48	389,00
-2985,44	384,00
-2974,43	383,00
-2963,43	291,00
-2952,45	408,00
-2941,48	328,00
-2930,53	442,00
-2919,60	241,00
-2908,68	348,00
-2897,78	358,00
-2886,89	388,00
-2876,02	458,00
-2865,17	403,00
-2854,33	365,00
-2843,50	306,00
-2832,70	385,00
-2821,90	312,00
-2811,13	413,00
-2800,37	412,00
-2789,62	256,00
-2778,89	333,00
-2768,18	417,00
-2757,48	404,00
-2746,80	358,00
-2736,13	355,00
-2725,48	449,00
-2714,84	272,00
-2704,22	374,00
-2693,61	385,00
-2683,02	418,00
-2672,45	379,00
-2661,89	380,00
-2651,34	385,00
-2640,81	444,00
-2630,30	432,00
-2619,80	326,00
-2609,31	456,00
-2598,84	347,00
-2588,39	330,00
-2577,95	343,00
-2567,52	369,00
-2557,11	281,00
-2546,71	434,00
-2536,33	378,00
-2525,97	398,00
-2515,62	417,00
-2505,28	444,00
-2494,96	346,00
-2484,65	392,00
-2474,36	493,00
-2464,08	251,00
-2453,82	490,00
-2443,57	394,00
-2433,33	276,00
-2423,11	427,00
-2412,91	383,00
-2402,72	358,00
-2392,54	365,00
-2382,38	391,00
-2372,23	407,00
-2362,09	-2726,00
-2351,97	486,00
-2341,87	293,00
-2331,78	386,00
-2321,70	439,00
-2311,64	381,00
-2301,59	482,00
-2291,55	386,00
-2281,53	390,00
-2271,53	284,00
-2261,53	448,00
-2251,55	391,00
-2241,59	340,00
-2231,64	356,00
-2221,70	331,00
-2211,78	369,00
-2201,87	379,00
-2191,97	364,00
-2182,09	396,00
-2172,22	390,00
-2162,37	385,00
-2152,53	359,00
-2142,70	362,00
-2132,89	331,00
-2123,09	425,00
-2113,30	312,00
-2103,53	335,00
-2093,77	303,00
-2084,02	320,00
-2074,29	387,00
-2064,57	391,00
-2054,86	399,00
-2045,17	512,00
-2035,49	349,00
-2025,82	345,00
-2016,17	381,00
-2006,53	343,00
-1996,91	371,00
-1987,29	317,00
-1977,69	383,00
-1968,11	369,00
-1958,53	380,00
-1948,97	396,00
-1939,42	395,00
-1929,89	357,00
-1920,37	427,00
-1910,86	324,00
-1901,36	408,00
-1891,88	409,00
-1882,41	359,00
-1872,95	413,00
-1863,51	437,00
-1854,08	326,00
-1844,66	328,00
-1835,26	449,00
-1825,86	422,00
-1816,48	329,00
-1807,11	434,00
-1797,76	388,00
-1788,42	364,00
-1779,09	395,00
-1769,77	334,00
-1760,47	489,00
-1751,17	281,00
-1741,89	310,00
-1732,63	474,00
-1723,37	530,00
-1714,13	449,00
-1704,90	324,00
-1695,68	391,00
-1686,48	299,00
-1677,29	292,00
-1668,11	396,00
-1658,94	372,00
-1649,78	333,00
-1640,64	470,00
-1631,51	322,00
-1622,39	437,00
-1613,28	446,00
-1604,19	485,00
-1595,10	374,00
-1586,03	416,00
-1576,97	437,00
-1567,93	373,00
-1558,89	247,00
-1549,87	412,00
-1540,86	352,00
-1531,86	353,00
-1522,87	359,00
-1513,90	408,00
-1504,93	411,00
-1495,98	429,00
-1487,04	417,00
-1478,12	323,00
-1469,20	387,00
-1460,30	318,00
-1451,40	443,00
-1442,52	423,00
-1433,65	452,00
-1424,80	375,00
-1415,95	359,00
-1407,12	442,00
-1398,30	297,00
-1389,48	448,00
-1380,69	263,00
-1371,90	253,00
-1363,12	472,00
-1354,36	454,00
-1345,60	317,00
-1336,86	310,00
-1328,13	471,00
-1319,41	354,00
-1310,70	328,00
-1302,01	316,00
-1293,32	322,00
-1284,65	388,00
-1275,99	431,00
-1267,33	469,00
-1258,69	415,00
-1250,06	441,00
-1241,45	329,00
-1232,84	427,00
-1224,25	338,00
-1215,66	360,00
-1207,09	349,00
-1198,53	370,00
-1189,97	385,00
-1181,43	276,00
-1172,91	318,00
-1164,39	357,00
-1155,88	365,00
-1147,38	305,00
-1138,90	354,00
-1130,43	363,00
-1121,96	295,00
-1113,51	366,00
-1105,07	370,00
-1096,64	397,00
-1088,22	352,00
-1079,81	339,00
-1071,41	434,00
-1063,02	330,00
-1054,65	434,00
-1046,28	368,00
-1037,92	391,00
-1029,58	345,00
-1021,24	412,00
-1012,92	527,00
-1004,61	340,00
-996,30	435,00
-988,01	326,00
-979,73	392,00
-971,46	468,00
-963,20	379,00
-954,95	329,00
-946,71	324,00
-938,48	433,00
-930,26	473,00
-922,06	361,00
-913,86	314,00
-905,67	346,00
-897,49	375,00
-889,33	315,00
-881,17	438,00
-873,02	330,00
-864,89	323,00
-856,76	333,00
-848,65	401,00
-840,54	391,00
-832,45	436,00
-824,36	326,00
-816,29	389,00
-808,22	376,00
-800,17	438,00
-792,12	368,00
-784,09	374,00
-776,06	325,00
-768,05	447,00
-760,04	370,00
-752,05	300,00
-744,07	363,00
-736,09	395,00
-728,13	319,00
-720,17	394,00
-712,23	351,00
-704,29	398,00
-696,37	364,00
-688,45	482,00
-680,55	309,00
-672,65	347,00
-664,77	397,00
-656,89	390,00
-649,03	349,00
-641,17	389,00
-633,32	337,00
-625,49	441,00
-617,66	358,00
-609,84	407,00
-602,03	317,00
-594,23	436,00
-586,45	380,00
-578,67	396,00
-570,90	452,00
-563,14	379,00
-555,39	483,00
-547,65	479,00
-539,91	401,00
-532,19	488,00
-524,48	358,00
-516,78	379,00
-509,08	418,00
-501,40	447,00
-493,72	404,00
-486,06	397,00
-478,40	399,00
-470,76	349,00
-463,12	434,00
-455,49	356,00
-447,87	404,00
-440,26	403,00
-432,66	401,00
-425,07	399,00
-417,49	441,00
-409,92	315,00
-402,35	371,00
-394,80	388,00
-387,25	433,00
-379,72	448,00
-372,19	464,00
-364,67	482,00
-357,17	377,00
-349,67	427,00
-342,18	438,00
-334,69	365,00
-327,22	457,00
-319,76	478,00
-312,30	437,00
-304,86	449,00
-297,42	434,00
-290,00	383,00
-282,58	428,00
-275,17	444,00
-267,77	489,00
-260,37	561,00
-252,99	515,00
-245,62	495,00
-238,25	543,00
-230,90	459,00
-223,55	581,00
-216,21	504,00
-208,88	677,00
-201,56	545,00
-194,25	630,00
-186,94	660,00
-179,65	631,00
-172,36	684,00
-165,08	785,00
-157,81	737,00
-150,55	821,00
-143,30	916,00
-136,06	933,00
-128,82	900,00
-121,60	999,00
-114,38	1146,00
-107,17	1324,00
-99,97	1594,00
-92,78	1444,00
-85,60	1626,00
-78,42	1960,00
-71,25	2024,00
-64,10	2403,00
-56,95	2764,00
-49,81	3138,00
-42,67	4012,00
-35,55	4819,00
-28,43	6173,00
-21,33	10036,00
-14,23	31702,00
-7,14	57498,00
-0,05	57284,00
7,02	57012,00
14,09	57319,00
21,14	28288,00
28,19	12265,00
35,23	7752,00
42,27	6137,00
49,29	5064,00
56,31	4389,00
63,32	3729,00
70,32	3227,00
77,31	2772,00
84,29	2381,00
91,27	2319,00
98,23	2154,00
105,19	2118,00
112,14	2619,00
119,09	4565,00
126,02	7848,00
132,95	9749,00
139,87	10401,00
146,78	10746,00
153,68	10810,00
160,58	10811,00
167,46	10481,00
174,34	10704,00
181,21	10770,00
188,08	10487,00
194,93	10652,00
201,78	10588,00
208,62	10754,00
215,45	10693,00
222,27	10922,00
229,09	10962,00
235,90	10854,00
242,70	10790,00
249,49	10749,00
256,27	10779,00
263,05	10708,00
269,82	10807,00
276,58	10603,00
283,33	10760,00
290,08	10564,00
296,82	10589,00
303,55	10374,00
310,27	10283,00
316,98	10336,00
323,69	10407,00
330,39	10321,00
337,08	10337,00
343,76	10345,00
350,44	10482,00
357,11	10244,00
363,77	10422,00
370,42	10326,00
377,07	10283,00
383,71	10205,00
390,34	10250,00
396,96	10495,00
403,58	10419,00
410,19	10543,00
416,79	10629,00
423,38	10573,00
429,97	10514,00
436,55	10274,00
443,12	10238,00
449,68	10183,00
456,24	10068,00
462,79	10174,00
469,33	9967,00
475,86	10025,00
482,39	9932,00
488,91	10045,00
495,42	9977,00
501,93	9757,00
508,42	9714,00
514,91	9701,00
521,40	9789,00
527,87	9601,00
534,34	9480,00
540,80	9587,00
547,25	9706,00
553,70	9719,00
560,14	9750,00
566,57	9632,00
573,00	9652,00
579,41	9644,00
585,83	9614,00
592,23	9581,00
598,62	9522,00
605,01	9478,00
611,40	9578,00
617,77	9442,00
624,14	9560,00
630,50	9518,00
636,85	9519,00
643,20	9237,00
649,54	9242,00
655,87	9354,00
662,20	9192,00
668,52	9345,00
674,83	9248,00
681,13	9218,00
687,43	9201,00
693,72	9031,00
700,00	9023,00
706,28	9100,00
712,55	9001,00
718,81	9120,00
725,07	9099,00
731,32	9045,00
737,56	8993,00
743,79	9076,00
750,02	9123,00
756,24	8933,00
762,46	9149,00
768,67	9042,00
774,87	9064,00
781,06	8899,00
787,25	9186,00
793,43	9132,00
799,60	9004,00
805,77	8920,00
811,93	8951,00
818,08	8956,00
824,23	8817,00
830,37	8988,00
836,50	8828,00
842,63	8841,00
848,75	8867,00
854,87	8785,00
860,97	8834,00
867,07	8741,00
873,17	8774,00
879,25	8589,00
885,33	8727,00
891,41	8575,00
897,47	8593,00
903,53	8422,00
909,59	8573,00
915,63	8448,00
921,67	8415,00
927,71	8454,00
933,74	8439,00
939,76	8267,00
945,77	8388,00
951,78	8538,00
957,78	8433,00
963,78	8463,00
969,77	8465,00
975,75	8394,00
981,72	8364,00
987,69	8975,00
993,66	8543,00
999,61	8439,00
1005,56	8422,00
1011,51	8362,00
1017,44	8460,00
1023,37	8406,00
1029,30	8410,00
1035,22	8490,00
1041,13	8407,00
1047,03	8517,00
1052,93	8645,00
1058,83	8814,00
1064,71	8998,00
1070,59	8754,00
1076,47	8466,00
1082,33	8385,00
1088,20	8419,00
1094,05	8320,00
1099,90	8206,00
1105,74	8111,00
1111,58	8221,00
1117,41	8191,00
1123,23	8343,00
1129,05	8800,00
1134,86	8610,00
1140,67	8411,00
1146,47	8242,00
1152,26	8259,00
1158,05	8225,00
1163,83	8103,00
1169,60	8236,00
1175,37	8096,00
1181,13	8141,00
1186,89	8056,00
1192,64	8189,00
1198,38	8066,00
1204,12	8016,00
1209,85	7980,00
1215,58	8036,00
1221,30	8099,00
1227,02	8135,00
1232,72	8120,00
1238,43	8053,00
1244,12	8134,00
1249,81	8125,00
1255,50	8183,00
1261,17	8041,00
1266,85	8127,00
1272,51	8101,00
1278,17	8184,00
1283,83	8375,00
1289,47	8554,00
1295,12	8810,00
1300,75	8765,00
1306,38	8438,00
1312,01	8196,00
1317,63	8123,00
1323,24	8168,00
1328,85	8104,00
1334,45	8067,00
1340,04	7972,00
1345,63	8091,00
1351,22	8087,00
1356,80	8148,00
1362,37	8151,00
1367,93	8119,00
1373,49	8251,00
1379,05	8231,00
1384,60	8129,00
1390,14	8029,00
1395,68	8118,00
1401,21	8060,00
1406,74	8127,00
1412,26	8351,00
1417,77	8421,00
1423,28	8260,00
1428,78	8345,00
1434,28	8804,00
1439,77	8789,00
1445,26	8843,00
1450,74	8745,00
1456,22	8513,00
1461,68	8644,00
1467,15	8460,00
1472,61	8220,00
1478,06	8069,00
1483,51	8035,00
1488,95	7751,00
1494,38	7898,00
1499,81	7631,00
1505,24	7629,00
1510,65	7511,00
1516,07	7595,00
1521,48	7705,00
1526,88	7398,00
1532,27	7388,00
1537,67	7540,00
1543,05	7295,00
1548,43	7393,00
1553,81	7445,00
1559,18	7303,00
1564,54	7328,00
1569,90	7283,00
1575,25	7204,00
1580,60	7185,00
1585,94	7112,00
1591,28	7256,00
1596,61	7342,00
1601,93	7123,00
1607,25	7167,00
1612,57	7112,00
1617,88	7121,00
1623,18	7160,00
1628,48	6963,00
1633,77	6955,00
1639,06	7063,00
1644,34	6921,00
1649,62	6824,00
1654,89	6888,00
1660,16	6848,00
1665,42	6918,00
1670,67	6826,00
1675,92	6605,00
1681,17	6676,00
1686,41	6703,00
1691,64	6677,00
1696,87	6612,00
1702,10	6665,00
1707,32	6538,00
1712,53	6557,00
1717,74	6535,00
1722,94	6569,00
1728,14	6346,00
1733,33	6471,00
1738,52	6311,00
1743,70	6310,00
1748,88	6355,00
1754,05	6268,00
1759,22	6165,00
1764,38	6287,00
1769,53	6314,00
1774,69	6211,00
1779,83	5993,00
1784,97	5990,00
1790,11	5971,00
1795,24	5915,00
1800,36	5834,00
1805,48	5877,00
1810,60	5985,00
1815,71	5848,00
1820,82	5910,00
1825,92	6065,00
1831,01	5826,00
1836,10	5925,00
1841,19	5930,00
1846,26	5849,00
1851,34	5841,00
1856,41	5727,00
1861,47	5827,00
1866,53	5853,00
1871,59	5843,00
1876,64	5778,00
1881,68	5702,00
1886,72	5580,00
1891,76	5684,00
1896,79	5547,00
1901,81	5480,00
1906,83	5405,00
1911,85	5501,00
1916,86	5377,00
1921,86	5354,00
1926,86	5235,00
1931,86	5294,00
1936,85	5268,00
1941,83	5146,00
1946,81	5135,00
1951,79	5079,00
1956,76	5084,00
1961,72	5000,00
1966,68	5022,00
1971,64	5027,00
1976,59	5002,00
1981,54	4916,00
1986,48	4973,00
1991,42	4848,00
1996,35	5074,00
2001,27	4875,00
2006,20	4896,00
2011,11	4968,00
2016,03	4926,00
2020,93	4846,00
2025,84	4911,00
2030,73	4791,00
2035,63	4719,00
2040,52	4654,00
2045,40	4752,00
2050,28	4732,00
2055,15	4637,00
2060,02	4582,00
2064,89	4643,00
2069,75	4555,00
2074,60	4620,00
2079,46	4486,00
2084,30	4472,00
2089,14	4499,00
2093,98	4666,00
2098,81	4562,00
2103,64	4569,00
2108,46	4530,00
2113,28	4615,00
2118,09	4530,00
2122,90	4489,00
2127,70	4494,00
2132,50	4515,00
2137,30	4448,00
2142,09	4279,00
2146,87	4354,00
2151,66	4387,00
2156,43	4287,00
2161,20	4325,00
2165,97	4316,00
2170,73	4228,00
2175,49	4234,00
2180,24	4285,00
2184,99	4250,00
2189,74	4216,00
2194,48	4222,00
2199,21	4125,00
2203,94	4235,00
2208,67	4039,00
2213,39	3960,00
2218,11	4117,00
2222,82	3983,00
2227,53	3916,00
2232,23	4005,00
2236,93	3942,00
2241,63	3841,00
2246,32	4060,00
2251,00	3899,00
2255,68	3914,00
2260,36	3796,00
2265,03	3794,00
2269,70	3950,00
2274,36	3873,00
2279,02	3899,00
2283,68	3686,00
2288,33	3802,00
2292,97	3772,00
2297,61	3680,00
2302,25	3727,00
2306,88	3648,00
2311,51	3583,00
2316,14	3614,00
2320,75	3568,00
2325,37	3507,00
2329,98	3501,00
2334,59	3596,00
2339,19	3446,00
2343,79	3480,00
2348,38	3494,00
2352,97	3443,00
2357,55	3376,00
2362,13	3347,00
2366,71	3282,00
2371,28	3419,00
2375,85	3279,00
2380,41	3331,00
2384,97	3187,00
2389,52	3244,00
2394,07	3341,00
2398,62	3183,00
2403,16	3319,00
2407,70	3042,00
2412,23	3078,00
2416,76	3170,00
2421,29	3274,00
2425,81	3280,00
2430,32	3200,00
2434,84	3068,00
2439,34	3081,00
2443,85	3168,00
2448,35	3056,00
2452,84	3007,00
2457,33	2924,00
2461,82	2950,00
2466,30	2890,00
2470,78	2897,00
2475,25	2874,00
2479,72	2949,00
2484,19	3013,00
2488,65	2909,00
2493,11	2828,00
2497,56	2930,00
2502,01	2794,00
2506,46	2826,00
2510,90	2788,00
2515,34	2709,00
2519,77	2838,00
2524,20	2815,00
2528,62	2729,00
2533,04	2750,00
2537,46	2708,00
2541,87	2677,00
2546,28	2688,00
2550,68	2734,00
2555,08	2675,00
2559,48	2598,00
2563,87	2527,00
2568,26	2511,00
2572,64	2596,00
2577,02	2471,00
2581,40	2340,00
2585,77	2511,00
2590,14	2419,00
2594,50	2316,00
2598,86	2363,00
2603,22	2265,00
2607,57	2274,00
2611,92	2297,00
2616,26	2360,00
2620,60	2360,00
2624,94	2365,00
2629,27	2280,00
2633,60	2166,00
2637,92	2366,00
2642,24	2266,00
2646,56	2299,00
2650,87	2166,00
2655,18	2285,00
2659,48	2215,00
2663,78	2188,00
2668,08	2201,00
2672,37	2215,00
2676,66	2166,00
2680,95	2132,00
2685,23	2233,00
2689,50	2137,00
2693,78	2151,00
2698,05	2203,00
2702,31	2149,00
2706,57	2169,00
2710,83	2106,00
2715,08	2269,00
2719,33	2236,00
2723,58	2171,00
2727,82	2228,00
2732,06	2187,00
2736,29	2170,00
2740,53	2169,00
2744,75	2101,00
2748,97	2031,00
2753,19	2109,00
2757,41	2087,00
2761,62	2016,00
2765,83	2032,00
2770,03	2009,00
2774,23	2076,00
2778,43	1968,00
2782,62	1928,00
2786,81	1992,00
2791,00	1930,00
2795,18	1973,00
2799,35	1876,00
2803,53	1949,00
2807,70	1956,00
2811,86	1977,00
2816,03	1955,00
2820,19	2001,00
2824,34	2026,00
2828,49	2065,00
2832,64	2191,00
2836,78	2357,00
2840,92	2443,00
2845,06	2702,00
2849,19	2761,00
2853,32	2824,00
2857,45	2788,00
2861,57	2874,00
2865,69	2748,00
2869,80	2648,00
2873,91	2697,00
2878,02	2833,00
2882,12	2833,00
2886,22	2879,00
2890,32	2737,00
2894,41	2702,00
2898,50	2583,00
2902,58	2525,00
2906,67	2431,00
2910,74	2303,00
2914,82	2229,00
2918,89	2362,00
2922,96	2089,00
2927,02	1965,00
2931,08	2032,00
2935,13	1903,00
2939,19	1893,00
2943,24	1875,00
2947,28	1868,00
2951,32	1660,00
2955,36	1713,00
2959,40	1645,00
2963,43	1606,00
2967,46	1608,00
2971,48	1618,00
2975,50	1526,00
2979,52	1566,00
2983,53	1423,00
2987,54	1439,00
2991,55	1435,00
2995,55	1385,00
2999,55	1371,00
3003,54	1329,00
3007,54	1332,00
3011,53	1389,00
3015,51	1238,00
3019,49	1349,00
3023,47	1195,00
3027,45	1295,00
3031,42	1163,00
3035,39	1272,00
3039,35	1239,00
3043,31	1221,00
3047,27	1202,00
3051,22	1231,00
3055,17	1214,00
3059,12	1161,00
3063,06	1215,00
3067,00	1157,00
3070,94	1054,00
3074,87	1152,00
3078,80	1118,00
3082,73	1119,00
3086,65	1137,00
3090,57	1133,00
3094,49	1140,00
3098,40	1018,00
3102,31	1119,00
3106,22	1071,00
3110,12	1016,00
3114,02	867,00
3117,92	984,00
3121,81	1025,00
3125,70	986,00
3129,58	988,00
3133,47	927,00
3137,34	1052,00
3141,22	1067,00
3145,09	964,00
3148,96	967,00
3152,83	1021,00
3156,69	957,00
3160,55	938,00
3164,40	1008,00
3168,26	1018,00
3172,10	930,00
3175,95	933,00
3179,79	1005,00
3183,63	965,00
3187,47	892,00
3191,30	995,00
3195,13	810,00
3198,95	841,00
3202,78	882,00
3206,60	893,00
3210,41	804,00
3214,23	810,00
3218,03	950,00
3221,84	807,00
3225,64	783,00
3229,44	801,00
3233,24	780,00
3237,03	808,00
3240,82	829,00
3244,61	761,00
3248,39	776,00
3252,17	754,00
3255,95	877,00
3259,72	749,00
3263,49	901,00
3267,26	799,00
3271,03	846,00
3274,79	767,00
3278,54	679,00
3282,30	654,00
3286,05	731,00
3289,80	750,00
3293,54	708,00
3297,29	763,00
3301,02	738,00
3304,76	773,00
3308,49	690,00
3312,22	691,00
3315,95	629,00
3319,67	604,00
3323,39	723,00
3327,10	729,00
3330,82	697,00
3334,53	775,00
3338,24	633,00
3341,94	591,00
3345,64	735,00
3349,34	667,00
3353,03	795,00
3356,72	642,00
3360,41	632,00
3364,10	568,00
3367,78	640,00
3371,46	567,00
3375,13	563,00
3378,81	644,00
3382,48	585,00
3386,14	621,00
3389,81	669,00
3393,47	564,00
3397,12	729,00
3400,78	563,00
3404,43	648,00
3408,08	538,00
3411,72	609,00
3415,36	526,00
3419,00	567,00
3422,64	558,00
3426,27	602,00
3429,90	578,00
3433,53	531,00
3437,15	600,00
3440,77	473,00
3444,39	565,00
3448,00	567,00
3451,62	509,00
3455,22	565,00
3458,83	480,00
3462,43	580,00
3466,03	532,00
3469,63	503,00
3473,22	498,00
3476,81	490,00
3480,40	570,00
3483,99	498,00
3487,57	509,00
3491,15	486,00
3494,72	624,00
3498,29	578,00
3501,86	464,00
3505,43	469,00
3508,99	426,00
3512,56	384,00
3516,11	512,00
3519,67	480,00
3523,22	485,00
3526,77	413,00
3530,32	621,00
3533,86	528,00
3537,40	525,00
3540,94	465,00
3544,47	471,00
3548,00	413,00
3551,53	461,00
3555,06	441,00
3558,58	444,00
3562,10	441,00
3565,62	388,00
3569,13	405,00
3572,64	499,00
3576,15	379,00
3579,66	336,00
3583,16	389,00
3586,66	438,00
3590,16	423,00
3593,65	398,00
3597,14	442,00
3600,63	405,00
3604,11	440,00
3607,60	431,00
3611,08	447,00
3614,55	405,00
3618,03	382,00
3621,50	376,00
3624,97	385,00
3628,43	400,00
3631,90	396,00
3635,36	321,00
3638,81	410,00
3642,27	348,00
3645,72	354,00
3649,17	278,00
3652,61	370,00
3656,06	424,00
3659,50	448,00
3662,93	425,00
3666,37	419,00
3669,80	515,00
3673,23	423,00
3676,65	412,00
3680,08	423,00
3683,50	360,00
3686,92	258,00
3690,33	368,00
3693,74	381,00
3697,15	409,00
3700,56	398,00
3703,96	390,00
3707,36	240,00
3710,76	318,00
3714,16	293,00
3717,55	349,00
3720,94	347,00
3724,33	377,00
3727,71	411,00
3731,10	324,00
3734,48	357,00
3737,85	329,00
3741,23	310,00
3744,60	311,00
3747,97	294,00
3751,33	407,00
3754,69	313,00
3758,05	284,00
3761,41	332,00
3764,77	267,00
3768,12	365,00
3771,47	241,00
3774,82	350,00
3778,16	-6,00
3781,50	6,00
3784,84	0,00
3788,18	8,00
>>>>>End Processed Spectral Data<<<<<
