SpectraSuite Data File
++++++++++++++++++++++++++++++++++++
Date: Mon Jan 05 16:29:13 ICT 2026
User: Administrator
Dark Spectrum Present: Yes
Reference Spectrum Present: No
Number of Sampled Component Spectra: 1
Spectrometers: MAYP113682
Integration Time (usec): 3000000 (MAYP113682)
Spectra Averaged: 1 (MAYP113682)
Boxcar Smoothing: 0 (MAYP113682)
Correct for Electrical Dark: No (MAYP113682)
Strobe/Lamp Enabled: No (MAYP113682)
Correct for Detector Non-linearity: No (MAYP113682)
Correct for Stray Light: No (MAYP113682)
Number of Pixels in Processed Spectrum: 2068
>>>>>Begin Processed Spectral Data<<<<<
-37534,58	27,00
-37414,56	5,00
-37295,11	9,00
-37176,24	9,00
-37057,95	324,00
-36940,22	522,00
-36823,05	563,00
-36706,45	559,00
-36590,40	598,00
-36474,90	585,00
-36359,95	562,00
-36245,55	643,00
-36131,68	576,00
-36018,35	580,00
-35905,55	559,00
-35793,29	631,00
-35681,54	526,00
-35570,32	573,00
-35459,62	613,00
-35349,43	659,00
-35239,75	608,00
-35130,58	633,00
-35021,91	556,00
-34913,74	534,00
-34806,07	620,00
-34698,89	688,00
-34592,20	603,00
-34486,00	666,00
-34380,28	620,00
-34275,04	606,00
-34170,27	568,00
-34065,98	780,00
-33962,16	626,00
-33858,81	658,00
-33755,92	627,00
-33653,49	746,00
-33551,52	684,00
-33450,01	669,00
-33348,94	609,00
-33248,33	588,00
-33148,16	598,00
-33048,43	662,00
-32949,14	735,00
-32850,29	842,00
-32751,87	580,00
-32653,89	650,00
-32556,33	704,00
-32459,20	590,00
-32362,49	644,00
-32266,19	658,00
-32170,32	601,00
-32074,86	706,00
-31979,82	722,00
-31885,18	729,00
-31790,95	667,00
-31697,12	713,00
-31603,69	747,00
-31510,67	705,00
-31418,04	660,00
-31325,80	614,00
-31233,95	596,00
-31142,49	676,00
-31051,42	661,00
-30960,73	805,00
-30870,43	781,00
-30780,50	664,00
-30690,95	606,00
-30601,77	773,00
-30512,97	697,00
-30424,53	704,00
-30336,46	637,00
-30248,76	597,00
-30161,42	751,00
-30074,44	582,00
-29987,81	634,00
-29901,55	728,00
-29815,63	667,00
-29730,07	747,00
-29644,86	739,00
-29560,00	617,00
-29475,48	715,00
-29391,30	654,00
-29307,47	710,00
-29223,97	680,00
-29140,81	765,00
-29057,99	690,00
-28975,50	623,00
-28893,34	683,00
-28811,51	612,00
-28730,00	771,00
-28648,82	586,00
-28567,97	699,00
-28487,43	623,00
-28407,21	579,00
-28327,32	679,00
-28247,73	733,00
-28168,46	696,00
-28089,50	712,00
-28010,85	622,00
-27932,51	541,00
-27854,48	558,00
-27776,75	635,00
-27699,32	665,00
-27622,19	648,00
-27545,37	636,00
-27468,84	745,00
-27392,60	718,00
-27316,66	721,00
-27241,01	617,00
-27165,66	640,00
-27090,59	536,00
-27015,81	754,00
-26941,31	738,00
-26867,10	616,00
-26793,17	776,00
-26719,52	612,00
-26646,15	613,00
-26573,06	664,00
-26500,24	612,00
-26427,70	659,00
-26355,43	577,00
-26283,43	655,00
-26211,71	659,00
-26140,25	653,00
-26069,06	668,00
-25998,13	590,00
-25927,46	640,00
-25857,06	557,00
-25786,92	673,00
-25717,04	582,00
-25647,42	648,00
-25578,05	639,00
-25508,94	590,00
-25440,09	643,00
-25371,48	680,00
-25303,13	695,00
-25235,02	612,00
-25167,17	647,00
-25099,56	650,00
-25032,19	620,00
-24965,07	606,00
-24898,20	527,00
-24831,56	604,00
-24765,17	673,00
-24699,01	579,00
-24633,10	687,00
-24567,41	684,00
-24501,97	543,00
-24436,75	696,00
-24371,77	632,00
-24307,03	696,00
-24242,51	679,00
-24178,22	606,00
-24114,16	609,00
-24050,32	625,00
-23986,71	601,00
-23923,32	688,00
-23860,16	640,00
-23797,22	654,00
-23734,50	653,00
-23672,00	609,00
-23609,71	658,00
-23547,65	587,00
-23485,80	621,00
-23424,16	546,00
-23362,74	761,00
-23301,53	629,00
-23240,54	480,00
-23179,75	525,00
-23119,17	609,00
-23058,80	607,00
-22998,64	713,00
-22938,68	563,00
-22878,93	649,00
-22819,39	573,00
-22760,04	644,00
-22700,90	604,00
-22641,96	660,00
-22583,22	666,00
-22524,68	572,00
-22466,33	649,00
-22408,19	640,00
-22350,23	593,00
-22292,48	619,00
-22234,92	666,00
-22177,55	755,00
-22120,37	775,00
-22063,38	595,00
-22006,58	656,00
-21949,98	641,00
-21893,56	591,00
-21837,33	683,00
-21781,28	620,00
-21725,42	698,00
-21669,74	705,00
-21614,25	643,00
-21558,94	644,00
-21503,81	643,00
-21448,86	689,00
-21394,10	616,00
-21339,51	620,00
-21285,10	538,00
-21230,86	513,00
-21176,81	598,00
-21122,93	581,00
-21069,22	544,00
-21015,69	534,00
-20962,33	722,00
-20909,14	631,00
-20856,13	711,00
-20803,28	739,00
-20750,61	615,00
-20698,10	522,00
-20645,76	563,00
-20593,59	682,00
-20541,59	681,00
-20489,75	675,00
-20438,07	496,00
-20386,56	680,00
-20335,22	551,00
-20284,03	637,00
-20233,01	659,00
-20182,15	576,00
-20131,45	603,00
-20080,91	507,00
-20030,52	743,00
-19980,30	607,00
-19930,23	566,00
-19880,32	702,00
-19830,56	595,00
-19780,96	615,00
-19731,52	617,00
-19682,23	671,00
-19633,09	635,00
-19584,10	560,00
-19535,26	579,00
-19486,58	781,00
-19438,04	581,00
-19389,66	635,00
-19341,42	634,00
-19293,33	643,00
-19245,39	684,00
-19197,60	725,00
-19149,95	673,00
-19102,45	618,00
-19055,09	616,00
-19007,87	630,00
-18960,80	709,00
-18913,87	646,00
-18867,09	606,00
-18820,44	780,00
-18773,94	631,00
-18727,57	673,00
-18681,35	546,00
-18635,26	620,00
-18589,31	559,00
-18543,50	648,00
-18497,83	619,00
-18452,29	662,00
-18406,89	578,00
-18361,63	679,00
-18316,50	617,00
-18271,50	659,00
-18226,63	724,00
-18181,90	716,00
-18137,30	642,00
-18092,84	627,00
-18048,50	707,00
-18004,29	617,00
-17960,22	554,00
-17916,27	616,00
-17872,45	686,00
-17828,76	673,00
-17785,20	616,00
-17741,77	676,00
-17698,46	714,00
-17655,28	588,00
-17612,22	627,00
-17569,29	542,00
-17526,48	723,00
-17483,79	745,00
-17441,23	597,00
-17398,79	665,00
-17356,48	557,00
-17314,28	723,00
-17272,21	657,00
-17230,26	600,00
-17188,42	614,00
-17146,71	734,00
-17105,12	550,00
-17063,64	693,00
-17022,28	584,00
-16981,04	597,00
-16939,92	751,00
-16898,91	818,00
-16858,02	497,00
-16817,25	644,00
-16776,59	573,00
-16736,04	596,00
-16695,61	661,00
-16655,29	599,00
-16615,09	553,00
-16574,99	710,00
-16535,01	660,00
-16495,15	675,00
-16455,39	632,00
-16415,74	542,00
-16376,21	603,00
-16336,78	624,00
-16297,46	596,00
-16258,26	537,00
-16219,16	627,00
-16180,17	636,00
-16141,28	661,00
-16102,51	666,00
-16063,84	606,00
-16025,27	634,00
-15986,82	584,00
-15948,46	589,00
-15910,22	615,00
-15872,07	540,00
-15834,04	672,00
-15796,10	602,00
-15758,27	727,00
-15720,54	675,00
-15682,91	631,00
-15645,39	787,00
-15607,97	680,00
-15570,64	552,00
-15533,42	685,00
-15496,30	640,00
-15459,28	647,00
-15422,36	686,00
-15385,54	542,00
-15348,82	622,00
-15312,19	768,00
-15275,66	601,00
-15239,23	680,00
-15202,90	600,00
-15166,67	596,00
-15130,53	687,00
-15094,48	649,00
-15058,54	596,00
-15022,68	602,00
-14986,93	663,00
-14951,26	694,00
-14915,69	713,00
-14880,22	593,00
-14844,84	662,00
-14809,55	593,00
-14774,35	589,00
-14739,25	670,00
-14704,24	703,00
-14669,32	653,00
-14634,49	602,00
-14599,75	641,00
-14565,10	631,00
-14530,55	697,00
-14496,08	575,00
-14461,70	632,00
-14427,41	653,00
-14393,21	588,00
-14359,10	546,00
-14325,07	572,00
-14291,14	528,00
-14257,29	657,00
-14223,52	655,00
-14189,85	767,00
-14156,26	674,00
-14122,76	568,00
-14089,34	574,00
-14056,01	661,00
-14022,76	603,00
-13989,60	679,00
-13956,52	702,00
-13923,53	692,00
-13890,62	584,00
-13857,79	605,00
-13825,05	593,00
-13792,39	594,00
-13759,81	732,00
-13727,31	500,00
-13694,90	621,00
-13662,57	681,00
-13630,31	725,00
-13598,14	684,00
-13566,05	585,00
-13534,05	657,00
-13502,12	646,00
-13470,27	579,00
-13438,50	722,00
-13406,80	579,00
-13375,19	656,00
-13343,66	630,00
-13312,20	666,00
-13280,83	652,00
-13249,53	698,00
-13218,30	549,00
-13187,16	606,00
-13156,09	741,00
-13125,10	614,00
-13094,18	616,00
-13063,34	649,00
-13032,58	599,00
-13001,89	687,00
-12971,28	696,00
-12940,74	579,00
-12910,27	707,00
-12879,88	648,00
-12849,57	705,00
-12819,33	618,00
-12789,16	611,00
-12759,06	657,00
-12729,04	576,00
-12699,09	1673,00
-12669,21	642,00
-12639,41	632,00
-12609,68	648,00
-12580,02	622,00
-12550,43	736,00
-12520,91	595,00
-12491,46	646,00
-12462,08	567,00
-12432,77	657,00
-12403,54	591,00
-12374,37	582,00
-12345,27	685,00
-12316,24	666,00
-12287,29	612,00
-12258,40	606,00
-12229,57	650,00
-12200,82	559,00
-12172,14	621,00
-12143,52	517,00
-12114,97	598,00
-12086,49	566,00
-12058,07	678,00
-12029,73	585,00
-12001,44	651,00
-11973,23	638,00
-11945,08	638,00
-11917,00	670,00
-11888,98	602,00
-11861,03	794,00
-11833,15	640,00
-11805,32	645,00
-11777,57	548,00
-11749,88	660,00
-11722,25	549,00
-11694,69	587,00
-11667,19	622,00
-11639,75	686,00
-11612,38	591,00
-11585,07	579,00
-11557,83	647,00
-11530,65	682,00
-11503,53	615,00
-11476,47	662,00
-11449,48	567,00
-11422,54	734,00
-11395,67	684,00
-11368,86	751,00
-11342,11	609,00
-11315,43	619,00
-11288,80	591,00
-11262,23	628,00
-11235,73	643,00
-11209,28	795,00
-11182,90	609,00
-11156,57	556,00
-11130,31	828,00
-11104,10	700,00
-11077,96	639,00
-11051,87	647,00
-11025,84	565,00
-10999,87	564,00
-10973,96	569,00
-10948,11	572,00
-10922,31	721,00
-10896,58	625,00
-10870,90	626,00
-10845,28	706,00
-10819,71	574,00
-10794,20	738,00
-10768,75	655,00
-10743,36	741,00
-10718,02	567,00
-10692,74	631,00
-10667,52	659,00
-10642,35	646,00
-10617,24	641,00
-10592,18	677,00
-10567,18	599,00
-10542,23	699,00
-10517,34	594,00
-10492,51	682,00
-10467,72	632,00
-10443,00	699,00
-10418,32	740,00
-10393,70	619,00
-10369,14	650,00
-10344,63	565,00
-10320,17	643,00
-10295,77	762,00
-10271,42	593,00
-10247,12	648,00
-10222,88	668,00
-10198,68	591,00
-10174,54	677,00
-10150,46	743,00
-10126,42	795,00
-10102,44	645,00
-10078,51	655,00
-10054,63	801,00
-10030,80	641,00
-10007,03	795,00
-9983,30	681,00
-9959,63	673,00
-9936,01	810,00
-9912,44	766,00
-9888,92	702,00
-9865,44	680,00
-9842,02	739,00
-9818,65	733,00
-9795,33	569,00
-9772,06	781,00
-9748,84	716,00
-9725,67	741,00
-9702,55	797,00
-9679,47	889,00
-9656,45	905,00
-9633,47	699,00
-9610,55	720,00
-9587,67	784,00
-9564,84	972,00
-9542,06	817,00
-9519,32	957,00
-9496,64	992,00
-9474,00	876,00
-9451,41	945,00
-9428,87	923,00
-9406,37	953,00
-9383,92	785,00
-9361,52	801,00
-9339,17	910,00
-9316,86	914,00
-9294,60	1088,00
-9272,38	1157,00
-9250,21	1252,00
-9228,09	1225,00
-9206,01	1374,00
-9183,98	1120,00
-9162,00	999,00
-9140,06	1112,00
-9118,16	979,00
-9096,31	1035,00
-9074,51	1050,00
-9052,75	1165,00
-9031,04	1154,00
-9009,37	1038,00
-8987,74	1062,00
-8966,16	971,00
-8944,63	730,00
-8923,14	851,00
-8901,69	821,00
-8880,29	789,00
-8858,93	1003,00
-8837,61	1065,00
-8816,34	1140,00
-8795,11	1092,00
-8773,92	975,00
-8752,78	1005,00
-8731,68	843,00
-8710,62	1057,00
-8689,61	896,00
-8668,63	1025,00
-8647,70	1051,00
-8626,82	1126,00
-8605,97	1169,00
-8585,17	1076,00
-8564,41	942,00
-8543,69	919,00
-8523,01	757,00
-8502,37	967,00
-8481,78	951,00
-8461,23	814,00
-8440,71	977,00
-8420,24	1009,00
-8399,81	1124,00
-8379,42	1026,00
-8359,08	1004,00
-8338,77	969,00
-8318,50	767,00
-8298,27	835,00
-8278,09	963,00
-8257,94	857,00
-8237,83	1105,00
-8217,76	1056,00
-8197,74	1006,00
-8177,75	1036,00
-8157,80	912,00
-8137,89	804,00
-8118,02	923,00
-8098,19	983,00
-8078,40	877,00
-8058,65	882,00
-8038,93	820,00
-8019,26	910,00
-7999,62	998,00
-7980,02	857,00
-7960,46	868,00
-7940,94	763,00
-7921,46	815,00
-7902,01	752,00
-7882,60	851,00
-7863,23	866,00
-7843,90	858,00
-7824,61	897,00
-7805,35	962,00
-7786,13	887,00
-7766,95	896,00
-7747,80	929,00
-7728,69	984,00
-7709,62	963,00
-7690,59	851,00
-7671,59	1020,00
-7652,63	840,00
-7633,70	859,00
-7614,81	919,00
-7595,96	835,00
-7577,15	870,00
-7558,37	793,00
-7539,62	834,00
-7520,91	835,00
-7502,24	816,00
-7483,60	926,00
-7465,00	759,00
-7446,44	875,00
-7427,91	639,00
-7409,41	687,00
-7390,95	725,00
-7372,53	596,00
-7354,14	737,00
-7335,78	706,00
-7317,46	717,00
-7299,18	720,00
-7280,92	726,00
-7262,71	923,00
-7244,52	861,00
-7226,38	789,00
-7208,26	785,00
-7190,18	697,00
-7172,14	804,00
-7154,12	687,00
-7136,15	779,00
-7118,20	776,00
-7100,29	785,00
-7082,41	822,00
-7064,57	667,00
-7046,76	676,00
-7028,98	640,00
-7011,24	675,00
-6993,53	626,00
-6975,85	663,00
-6958,20	496,00
-6940,59	576,00
-6923,01	466,00
-6905,46	660,00
-6887,94	570,00
-6870,46	874,00
-6853,01	714,00
-6835,59	702,00
-6818,21	603,00
-6800,85	624,00
-6783,53	494,00
-6766,24	430,00
-6748,98	573,00
-6731,76	491,00
-6714,56	426,00
-6697,40	358,00
-6680,26	437,00
-6663,16	504,00
-6646,09	586,00
-6629,05	568,00
-6612,05	568,00
-6595,07	569,00
-6578,13	590,00
-6561,21	471,00
-6544,33	658,00
-6527,47	489,00
-6510,65	459,00
-6493,86	405,00
-6477,10	381,00
-6460,36	504,00
-6443,66	422,00
-6426,99	468,00
-6410,35	609,00
-6393,74	568,00
-6377,16	449,00
-6360,61	594,00
-6344,09	424,00
-6327,59	513,00
-6311,13	573,00
-6294,70	527,00
-6278,29	627,00
-6261,92	549,00
-6245,58	545,00
-6229,26	575,00
-6212,97	652,00
-6196,72	457,00
-6180,49	556,00
-6164,29	501,00
-6148,12	670,00
-6131,98	572,00
-6115,86	472,00
-6099,78	364,00
-6083,72	389,00
-6067,69	388,00
-6051,69	455,00
-6035,72	557,00
-6019,78	515,00
-6003,87	566,00
-5987,98	556,00
-5972,12	515,00
-5956,29	592,00
-5940,49	374,00
-5924,71	706,00
-5908,96	535,00
-5893,24	557,00
-5877,55	531,00
-5861,89	509,00
-5846,25	320,00
-5830,64	507,00
-5815,05	468,00
-5799,50	450,00
-5783,97	558,00
-5768,47	550,00
-5752,99	672,00
-5737,55	538,00
-5722,12	580,00
-5706,73	562,00
-5691,36	567,00
-5676,02	529,00
-5660,71	454,00
-5645,42	511,00
-5630,16	620,00
-5614,92	581,00
-5599,71	456,00
-5584,53	501,00
-5569,37	488,00
-5554,24	1456,00
-5539,14	450,00
-5524,06	551,00
-5509,01	549,00
-5493,98	506,00
-5478,98	491,00
-5464,00	432,00
-5449,05	449,00
-5434,13	545,00
-5419,23	541,00
-5404,36	463,00
-5389,51	465,00
-5374,69	522,00
-5359,89	669,00
-5345,12	527,00
-5330,37	714,00
-5315,65	526,00
-5300,95	632,00
-5286,28	563,00
-5271,63	437,00
-5257,01	493,00
-5242,41	441,00
-5227,84	351,00
-5213,29	576,00
-5198,76	509,00
-5184,26	654,00
-5169,79	468,00
-5155,33	555,00
-5140,91	414,00
-5126,51	475,00
-5112,13	545,00
-5097,77	549,00
-5083,44	597,00
-5069,13	599,00
-5054,85	623,00
-5040,59	558,00
-5026,36	518,00
-5012,15	566,00
-4997,96	555,00
-4983,80	638,00
-4969,66	559,00
-4955,54	513,00
-4941,44	542,00
-4927,37	457,00
-4913,33	573,00
-4899,30	571,00
-4885,30	627,00
-4871,33	478,00
-4857,37	628,00
-4843,44	555,00
-4829,53	603,00
-4815,65	638,00
-4801,79	398,00
-4787,95	542,00
-4774,13	483,00
-4760,34	565,00
-4746,56	586,00
-4732,82	524,00
-4719,09	645,00
-4705,38	608,00
-4691,70	563,00
-4678,04	717,00
-4664,41	686,00
-4650,79	744,00
-4637,20	566,00
-4623,63	569,00
-4610,08	643,00
-4596,56	531,00
-4583,05	531,00
-4569,57	521,00
-4556,11	592,00
-4542,67	647,00
-4529,25	601,00
-4515,86	437,00
-4502,49	566,00
-4489,13	604,00
-4475,80	697,00
-4462,49	515,00
-4449,21	695,00
-4435,94	615,00
-4422,70	439,00
-4409,47	477,00
-4396,27	594,00
-4383,09	517,00
-4369,93	588,00
-4356,79	529,00
-4343,67	650,00
-4330,58	678,00
-4317,50	662,00
-4304,45	637,00
-4291,41	700,00
-4278,40	598,00
-4265,41	512,00
-4252,44	693,00
-4239,49	547,00
-4226,55	684,00
-4213,65	651,00
-4200,76	652,00
-4187,89	664,00
-4175,04	617,00
-4162,21	517,00
-4149,40	577,00
-4136,61	642,00
-4123,85	612,00
-4111,10	591,00
-4098,37	763,00
-4085,66	575,00
-4072,98	682,00
-4060,31	563,00
-4047,66	754,00
-4035,04	812,00
-4022,43	591,00
-4009,84	606,00
-3997,27	505,00
-3984,72	630,00
-3972,19	693,00
-3959,69	700,00
-3947,20	532,00
-3934,73	565,00
-3922,27	567,00
-3909,84	582,00
-3897,43	744,00
-3885,04	661,00
-3872,67	607,00
-3860,31	597,00
-3847,98	642,00
-3835,66	675,00
-3823,36	571,00
-3811,09	604,00
-3798,83	709,00
-3786,59	665,00
-3774,37	745,00
-3762,17	628,00
-3749,98	671,00
-3737,82	616,00
-3725,67	800,00
-3713,55	575,00
-3701,44	691,00
-3689,35	641,00
-3677,28	753,00
-3665,22	587,00
-3653,19	642,00
-3641,17	623,00
-3629,18	679,00
-3617,20	643,00
-3605,24	624,00
-3593,30	688,00
-3581,37	764,00
-3569,47	664,00
-3557,58	681,00
-3545,71	667,00
-3533,86	716,00
-3522,02	595,00
-3510,21	615,00
-3498,41	614,00
-3486,63	617,00
-3474,87	673,00
-3463,12	656,00
-3451,40	578,00
-3439,69	677,00
-3428,00	631,00
-3416,33	715,00
-3404,67	581,00
-3393,03	630,00
-3381,41	650,00
-3369,81	685,00
-3358,22	680,00
-3346,66	758,00
-3335,10	694,00
-3323,57	638,00
-3312,06	728,00
-3300,56	719,00
-3289,08	549,00
-3277,61	574,00
-3266,16	693,00
-3254,73	645,00
-3243,32	653,00
-3231,92	603,00
-3220,55	675,00
-3209,18	720,00
-3197,84	607,00
-3186,51	577,00
-3175,20	650,00
-3163,90	588,00
-3152,63	736,00
-3141,36	540,00
-3130,12	687,00
-3118,89	662,00
-3107,68	649,00
-3096,49	603,00
-3085,31	590,00
-3074,15	724,00
-3063,00	682,00
-3051,87	624,00
-3040,76	619,00
-3029,67	735,00
-3018,59	815,00
-3007,52	756,00
-2996,48	684,00
-2985,44	648,00
-2974,43	678,00
-2963,43	543,00
-2952,45	632,00
-2941,48	574,00
-2930,53	639,00
-2919,60	542,00
-2908,68	580,00
-2897,78	686,00
-2886,89	745,00
-2876,02	703,00
-2865,17	604,00
-2854,33	724,00
-2843,50	651,00
-2832,70	638,00
-2821,90	592,00
-2811,13	731,00
-2800,37	643,00
-2789,62	510,00
-2778,89	572,00
-2768,18	721,00
-2757,48	700,00
-2746,80	739,00
-2736,13	630,00
-2725,48	752,00
-2714,84	594,00
-2704,22	643,00
-2693,61	642,00
-2683,02	667,00
-2672,45	712,00
-2661,89	676,00
-2651,34	696,00
-2640,81	692,00
-2630,30	698,00
-2619,80	610,00
-2609,31	728,00
-2598,84	590,00
-2588,39	595,00
-2577,95	611,00
-2567,52	570,00
-2557,11	568,00
-2546,71	652,00
-2536,33	693,00
-2525,97	701,00
-2515,62	698,00
-2505,28	622,00
-2494,96	575,00
-2484,65	700,00
-2474,36	944,00
-2464,08	565,00
-2453,82	816,00
-2443,57	663,00
-2433,33	566,00
-2423,11	679,00
-2412,91	720,00
-2402,72	573,00
-2392,54	701,00
-2382,38	674,00
-2372,23	652,00
-2362,09	1607,00
-2351,97	623,00
-2341,87	591,00
-2331,78	634,00
-2321,70	651,00
-2311,64	645,00
-2301,59	650,00
-2291,55	593,00
-2281,53	703,00
-2271,53	565,00
-2261,53	740,00
-2251,55	651,00
-2241,59	641,00
-2231,64	676,00
-2221,70	650,00
-2211,78	680,00
-2201,87	712,00
-2191,97	765,00
-2182,09	530,00
-2172,22	665,00
-2162,37	615,00
-2152,53	553,00
-2142,70	652,00
-2132,89	611,00
-2123,09	694,00
-2113,30	682,00
-2103,53	681,00
-2093,77	677,00
-2084,02	621,00
-2074,29	690,00
-2064,57	652,00
-2054,86	652,00
-2045,17	707,00
-2035,49	708,00
-2025,82	570,00
-2016,17	554,00
-2006,53	671,00
-1996,91	642,00
-1987,29	652,00
-1977,69	700,00
-1968,11	595,00
-1958,53	584,00
-1948,97	601,00
-1939,42	647,00
-1929,89	716,00
-1920,37	655,00
-1910,86	630,00
-1901,36	604,00
-1891,88	670,00
-1882,41	660,00
-1872,95	711,00
-1863,51	672,00
-1854,08	628,00
-1844,66	722,00
-1835,26	753,00
-1825,86	686,00
-1816,48	593,00
-1807,11	735,00
-1797,76	681,00
-1788,42	668,00
-1779,09	678,00
-1769,77	698,00
-1760,47	697,00
-1751,17	573,00
-1741,89	607,00
-1732,63	665,00
-1723,37	805,00
-1714,13	812,00
-1704,90	658,00
-1695,68	746,00
-1686,48	517,00
-1677,29	588,00
-1668,11	810,00
-1658,94	557,00
-1649,78	686,00
-1640,64	629,00
-1631,51	708,00
-1622,39	743,00
-1613,28	628,00
-1604,19	749,00
-1595,10	711,00
-1586,03	631,00
-1576,97	711,00
-1567,93	555,00
-1558,89	605,00
-1549,87	752,00
-1540,86	596,00
-1531,86	696,00
-1522,87	615,00
-1513,90	758,00
-1504,93	653,00
-1495,98	739,00
-1487,04	715,00
-1478,12	586,00
-1469,20	704,00
-1460,30	679,00
-1451,40	776,00
-1442,52	685,00
-1433,65	724,00
-1424,80	658,00
-1415,95	604,00
-1407,12	900,00
-1398,30	594,00
-1389,48	709,00
-1380,69	591,00
-1371,90	667,00
-1363,12	664,00
-1354,36	782,00
-1345,60	677,00
-1336,86	729,00
-1328,13	760,00
-1319,41	664,00
-1310,70	664,00
-1302,01	570,00
-1293,32	626,00
-1284,65	690,00
-1275,99	749,00
-1267,33	862,00
-1258,69	710,00
-1250,06	705,00
-1241,45	505,00
-1232,84	818,00
-1224,25	692,00
-1215,66	720,00
-1207,09	648,00
-1198,53	699,00
-1189,97	663,00
-1181,43	656,00
-1172,91	641,00
-1164,39	721,00
-1155,88	556,00
-1147,38	553,00
-1138,90	679,00
-1130,43	613,00
-1121,96	686,00
-1113,51	718,00
-1105,07	656,00
-1096,64	755,00
-1088,22	657,00
-1079,81	685,00
-1071,41	741,00
-1063,02	691,00
-1054,65	717,00
-1046,28	663,00
-1037,92	637,00
-1029,58	637,00
-1021,24	705,00
-1012,92	821,00
-1004,61	684,00
-996,30	816,00
-988,01	591,00
-979,73	640,00
-971,46	721,00
-963,20	680,00
-954,95	500,00
-946,71	693,00
-938,48	677,00
-930,26	672,00
-922,06	684,00
-913,86	621,00
-905,67	548,00
-897,49	672,00
-889,33	626,00
-881,17	763,00
-873,02	707,00
-864,89	560,00
-856,76	584,00
-848,65	728,00
-840,54	704,00
-832,45	690,00
-824,36	590,00
-816,29	676,00
-808,22	717,00
-800,17	701,00
-792,12	678,00
-784,09	730,00
-776,06	591,00
-768,05	633,00
-760,04	611,00
-752,05	636,00
-744,07	604,00
-736,09	705,00
-728,13	518,00
-720,17	676,00
-712,23	608,00
-704,29	623,00
-696,37	646,00
-688,45	764,00
-680,55	638,00
-672,65	624,00
-664,77	667,00
-656,89	668,00
-649,03	608,00
-641,17	740,00
-633,32	686,00
-625,49	664,00
-617,66	655,00
-609,84	721,00
-602,03	574,00
-594,23	690,00
-586,45	643,00
-578,67	603,00
-570,90	695,00
-563,14	629,00
-555,39	781,00
-547,65	715,00
-539,91	778,00
-532,19	789,00
-524,48	692,00
-516,78	550,00
-509,08	742,00
-501,40	595,00
-493,72	704,00
-486,06	570,00
-478,40	765,00
-470,76	611,00
-463,12	616,00
-455,49	627,00
-447,87	672,00
-440,26	649,00
-432,66	614,00
-425,07	710,00
-417,49	705,00
-409,92	515,00
-402,35	644,00
-394,80	619,00
-387,25	658,00
-379,72	685,00
-372,19	743,00
-364,67	744,00
-357,17	648,00
-349,67	755,00
-342,18	622,00
-334,69	711,00
-327,22	681,00
-319,76	588,00
-312,30	626,00
-304,86	603,00
-297,42	688,00
-290,00	712,00
-282,58	673,00
-275,17	724,00
-267,77	782,00
-260,37	687,00
-252,99	840,00
-245,62	773,00
-238,25	745,00
-230,90	745,00
-223,55	751,00
-216,21	762,00
-208,88	864,00
-201,56	776,00
-194,25	793,00
-186,94	836,00
-179,65	877,00
-172,36	846,00
-165,08	954,00
-157,81	965,00
-150,55	1047,00
-143,30	1048,00
-136,06	1047,00
-128,82	1072,00
-121,60	1121,00
-114,38	1228,00
-107,17	1383,00
-99,97	1477,00
-92,78	1537,00
-85,60	1594,00
-78,42	1783,00
-71,25	2045,00
-64,10	2099,00
-56,95	2419,00
-49,81	2718,00
-42,67	3322,00
-35,55	3948,00
-28,43	5118,00
-21,33	8058,00
-14,23	24912,00
-7,14	57498,00
-0,05	57284,00
7,02	57012,00
14,09	57319,00
21,14	21578,00
28,19	9490,00
35,23	6177,00
42,27	4978,00
49,29	4023,00
56,31	3538,00
63,32	3134,00
70,32	2692,00
77,31	2364,00
84,29	2119,00
91,27	2083,00
98,23	1917,00
105,19	1898,00
112,14	2015,00
119,09	2983,00
126,02	4434,00
132,95	5384,00
139,87	5666,00
146,78	5905,00
153,68	5790,00
160,58	5740,00
167,46	5569,00
174,34	5630,00
181,21	5700,00
188,08	5590,00
194,93	5639,00
201,78	5644,00
208,62	5643,00
215,45	5730,00
222,27	5725,00
229,09	5810,00
235,90	5625,00
242,70	5631,00
249,49	5827,00
256,27	5632,00
263,05	5545,00
269,82	5531,00
276,58	5699,00
283,33	5505,00
290,08	5534,00
296,82	5502,00
303,55	5340,00
310,27	5332,00
316,98	5436,00
323,69	5265,00
330,39	5306,00
337,08	5285,00
343,76	5417,00
350,44	5302,00
357,11	5291,00
363,77	5346,00
370,42	5285,00
377,07	5319,00
383,71	5216,00
390,34	5231,00
396,96	5366,00
403,58	5256,00
410,19	5344,00
416,79	5404,00
423,38	5517,00
429,97	5328,00
436,55	5098,00
443,12	5109,00
449,68	5136,00
456,24	5055,00
462,79	5030,00
469,33	4957,00
475,86	4926,00
482,39	4856,00
488,91	4998,00
495,42	5015,00
501,93	4871,00
508,42	4876,00
514,91	4859,00
521,40	4880,00
527,87	4860,00
534,34	4814,00
540,80	4746,00
547,25	4771,00
553,70	4800,00
560,14	4794,00
566,57	4842,00
573,00	4859,00
579,41	4850,00
585,83	4757,00
592,23	4719,00
598,62	4830,00
605,01	4719,00
611,40	4762,00
617,77	4746,00
624,14	4677,00
630,50	4686,00
636,85	4734,00
643,20	4677,00
649,54	4594,00
655,87	4700,00
662,20	4577,00
668,52	4652,00
674,83	4737,00
681,13	4567,00
687,43	4649,00
693,72	4487,00
700,00	4477,00
706,28	4525,00
712,55	4568,00
718,81	4505,00
725,07	4438,00
731,32	4509,00
737,56	4565,00
743,79	4520,00
750,02	4522,00
756,24	4517,00
762,46	4413,00
768,67	4592,00
774,87	4420,00
781,06	4304,00
787,25	4495,00
793,43	4537,00
799,60	4418,00
805,77	4537,00
811,93	4480,00
818,08	4492,00
824,23	4460,00
830,37	4692,00
836,50	4443,00
842,63	4437,00
848,75	4382,00
854,87	4307,00
860,97	4476,00
867,07	4342,00
873,17	4283,00
879,25	4342,00
885,33	4318,00
891,41	4338,00
897,47	4391,00
903,53	4246,00
909,59	4369,00
915,63	4263,00
921,67	4345,00
927,71	4333,00
933,74	4375,00
939,76	4067,00
945,77	4182,00
951,78	4246,00
957,78	4176,00
963,78	4297,00
969,77	4252,00
975,75	4215,00
981,72	4216,00
987,69	5245,00
993,66	4346,00
999,61	4268,00
1005,56	4183,00
1011,51	4247,00
1017,44	4247,00
1023,37	4180,00
1029,30	4254,00
1035,22	4316,00
1041,13	4201,00
1047,03	4241,00
1052,93	4221,00
1058,83	4627,00
1064,71	4630,00
1070,59	4524,00
1076,47	4390,00
1082,33	4192,00
1088,20	4319,00
1094,05	4175,00
1099,90	4056,00
1105,74	4123,00
1111,58	4095,00
1117,41	4226,00
1123,23	4345,00
1129,05	4447,00
1134,86	4534,00
1140,67	4343,00
1146,47	4253,00
1152,26	4184,00
1158,05	4168,00
1163,83	4074,00
1169,60	4212,00
1175,37	4246,00
1181,13	4150,00
1186,89	4033,00
1192,64	4149,00
1198,38	4257,00
1204,12	3946,00
1209,85	4104,00
1215,58	4007,00
1221,30	4166,00
1227,02	4157,00
1232,72	4068,00
1238,43	4106,00
1244,12	4039,00
1249,81	4026,00
1255,50	4157,00
1261,17	4129,00
1266,85	4163,00
1272,51	4174,00
1278,17	4155,00
1283,83	4253,00
1289,47	4511,00
1295,12	4815,00
1300,75	4627,00
1306,38	4538,00
1312,01	4362,00
1317,63	4187,00
1323,24	4237,00
1328,85	4132,00
1334,45	4051,00
1340,04	4118,00
1345,63	4140,00
1351,22	4253,00
1356,80	4215,00
1362,37	4368,00
1367,93	4320,00
1373,49	4236,00
1379,05	4138,00
1384,60	4124,00
1390,14	4309,00
1395,68	4166,00
1401,21	4208,00
1406,74	4285,00
1412,26	4437,00
1417,77	4503,00
1423,28	4414,00
1428,78	4596,00
1434,28	4840,00
1439,77	4952,00
1445,26	4957,00
1450,74	4906,00
1456,22	4762,00
1461,68	4712,00
1467,15	4603,00
1472,61	4363,00
1478,06	4385,00
1483,51	4237,00
1488,95	4046,00
1494,38	4126,00
1499,81	3985,00
1505,24	4015,00
1510,65	3954,00
1516,07	4096,00
1521,48	3974,00
1526,88	3897,00
1532,27	3893,00
1537,67	3823,00
1543,05	3865,00
1548,43	3798,00
1553,81	3927,00
1559,18	3734,00
1564,54	3831,00
1569,90	3804,00
1575,25	3735,00
1580,60	3670,00
1585,94	3768,00
1591,28	3755,00
1596,61	3802,00
1601,93	3678,00
1607,25	3815,00
1612,57	3641,00
1617,88	3770,00
1623,18	3708,00
1628,48	3612,00
1633,77	3633,00
1639,06	3767,00
1644,34	3548,00
1649,62	3502,00
1654,89	3617,00
1660,16	3533,00
1665,42	3698,00
1670,67	3568,00
1675,92	3460,00
1681,17	3532,00
1686,41	3509,00
1691,64	3585,00
1696,87	3615,00
1702,10	3446,00
1707,32	3404,00
1712,53	3380,00
1717,74	3435,00
1722,94	3545,00
1728,14	3349,00
1733,33	3332,00
1738,52	3137,00
1743,70	3335,00
1748,88	3254,00
1754,05	3381,00
1759,22	3189,00
1764,38	2457,00
1769,53	3321,00
1774,69	3305,00
1779,83	3139,00
1784,97	3260,00
1790,11	3219,00
1795,24	3138,00
1800,36	3139,00
1805,48	3093,00
1810,60	3165,00
1815,71	3098,00
1820,82	3069,00
1825,92	3136,00
1831,01	3108,00
1836,10	3094,00
1841,19	3201,00
1846,26	2934,00
1851,34	3066,00
1856,41	3191,00
1861,47	3091,00
1866,53	3148,00
1871,59	3080,00
1876,64	3022,00
1881,68	2984,00
1886,72	3010,00
1891,76	2999,00
1896,79	2925,00
1901,81	2772,00
1906,83	2917,00
1911,85	2970,00
1916,86	2886,00
1921,86	2869,00
1926,86	2810,00
1931,86	2828,00
1936,85	2758,00
1941,83	2633,00
1946,81	2720,00
1951,79	2730,00
1956,76	2599,00
1961,72	2618,00
1966,68	2680,00
1971,64	2679,00
1976,59	2716,00
1981,54	2676,00
1986,48	2715,00
1991,42	2674,00
1996,35	2832,00
2001,27	2558,00
2006,20	2596,00
2011,11	2651,00
2016,03	2574,00
2020,93	2505,00
2025,84	2636,00
2030,73	2506,00
2035,63	2505,00
2040,52	2619,00
2045,40	2611,00
2050,28	2626,00
2055,15	2393,00
2060,02	2396,00
2064,89	2560,00
2069,75	2525,00
2074,60	2455,00
2079,46	2435,00
2084,30	2378,00
2089,14	2348,00
2093,98	2505,00
2098,81	2425,00
2103,64	2522,00
2108,46	2466,00
2113,28	2527,00
2118,09	2481,00
2122,90	2477,00
2127,70	2399,00
2132,50	2484,00
2137,30	2381,00
2142,09	2317,00
2146,87	2275,00
2151,66	2406,00
2156,43	2252,00
2161,20	2280,00
2165,97	2359,00
2170,73	2302,00
2175,49	2386,00
2180,24	2270,00
2184,99	2478,00
2189,74	2387,00
2194,48	2306,00
2199,21	2338,00
2203,94	2278,00
2208,67	2099,00
2213,39	2088,00
2218,11	2373,00
2222,82	2227,00
2227,53	2271,00
2232,23	2226,00
2236,93	2211,00
2241,63	2070,00
2246,32	2224,00
2251,00	2199,00
2255,68	2199,00
2260,36	2116,00
2265,03	2207,00
2269,70	2299,00
2274,36	2144,00
2279,02	2158,00
2283,68	2047,00
2288,33	2132,00
2292,97	2181,00
2297,61	2182,00
2302,25	2093,00
2306,88	2088,00
2311,51	2014,00
2316,14	2077,00
2320,75	1957,00
2325,37	1987,00
2329,98	2080,00
2334,59	2086,00
2339,19	1945,00
2343,79	1956,00
2348,38	2033,00
2352,97	1891,00
2357,55	1907,00
2362,13	1981,00
2366,71	1970,00
2371,28	1941,00
2375,85	1951,00
2380,41	1939,00
2384,97	1783,00
2389,52	1954,00
2394,07	2015,00
2398,62	1842,00
2403,16	1948,00
2407,70	1775,00
2412,23	1826,00
2416,76	1942,00
2421,29	1854,00
2425,81	1905,00
2430,32	1887,00
2434,84	1762,00
2439,34	1838,00
2443,85	1980,00
2448,35	1752,00
2452,84	1807,00
2457,33	1836,00
2461,82	1745,00
2466,30	1629,00
2470,78	1778,00
2475,25	1765,00
2479,72	1645,00
2484,19	1890,00
2488,65	1720,00
2493,11	1751,00
2497,56	1793,00
2502,01	1634,00
2506,46	1756,00
2510,90	1702,00
2515,34	1663,00
2519,77	1650,00
2524,20	1700,00
2528,62	1732,00
2533,04	1719,00
2537,46	1748,00
2541,87	1625,00
2546,28	1642,00
2550,68	1727,00
2555,08	1623,00
2559,48	1626,00
2563,87	1540,00
2568,26	1539,00
2572,64	1686,00
2577,02	1592,00
2581,40	1466,00
2585,77	1624,00
2590,14	1568,00
2594,50	1437,00
2598,86	1543,00
2603,22	1569,00
2607,57	1411,00
2611,92	1530,00
2616,26	1629,00
2620,60	1661,00
2624,94	1423,00
2629,27	1615,00
2633,60	1463,00
2637,92	1541,00
2642,24	1492,00
2646,56	1526,00
2650,87	1368,00
2655,18	1596,00
2659,48	1405,00
2663,78	1398,00
2668,08	1389,00
2672,37	1465,00
2676,66	1473,00
2680,95	1332,00
2685,23	1543,00
2689,50	1418,00
2693,78	1413,00
2698,05	1366,00
2702,31	1444,00
2706,57	1551,00
2710,83	1524,00
2715,08	1578,00
2719,33	1553,00
2723,58	1547,00
2727,82	1560,00
2732,06	1442,00
2736,29	1502,00
2740,53	1431,00
2744,75	1365,00
2748,97	1404,00
2753,19	1461,00
2757,41	1414,00
2761,62	1463,00
2765,83	1459,00
2770,03	1323,00
2774,23	1466,00
2778,43	1366,00
2782,62	1438,00
2786,81	1325,00
2791,00	1439,00
2795,18	1427,00
2799,35	1490,00
2803,53	1385,00
2807,70	1372,00
2811,86	1513,00
2816,03	1465,00
2820,19	1441,00
2824,34	1415,00
2828,49	1451,00
2832,64	1630,00
2836,78	1766,00
2840,92	1814,00
2845,06	2027,00
2849,19	2231,00
2853,32	2163,00
2857,45	2181,00
2861,57	2182,00
2865,69	2252,00
2869,80	1989,00
2873,91	2074,00
2878,02	2219,00
2882,12	2284,00
2886,22	2277,00
2890,32	2237,00
2894,41	2157,00
2898,50	2052,00
2902,58	1969,00
2906,67	1981,00
2910,74	1943,00
2914,82	1813,00
2918,89	1904,00
2922,96	1662,00
2927,02	1524,00
2931,08	1577,00
2935,13	1471,00
2939,19	1506,00
2943,24	1471,00
2947,28	1471,00
2951,32	1304,00
2955,36	1301,00
2959,40	1360,00
2963,43	1315,00
2967,46	1310,00
2971,48	1249,00
2975,50	1265,00
2979,52	1280,00
2983,53	1198,00
2987,54	1158,00
2991,55	1212,00
2995,55	1189,00
2999,55	1081,00
3003,54	1072,00
3007,54	1140,00
3011,53	1085,00
3015,51	1100,00
3019,49	1102,00
3023,47	1026,00
3027,45	1108,00
3031,42	1001,00
3035,39	1006,00
3039,35	975,00
3043,31	1086,00
3047,27	938,00
3051,22	1038,00
3055,17	1077,00
3059,12	1001,00
3063,06	1020,00
3067,00	949,00
3070,94	908,00
3074,87	1092,00
3078,80	947,00
3082,73	994,00
3086,65	898,00
3090,57	982,00
3094,49	908,00
3098,40	939,00
3102,31	911,00
3106,22	1002,00
3110,12	941,00
3114,02	926,00
3117,92	901,00
3121,81	926,00
3125,70	1000,00
3129,58	870,00
3133,47	872,00
3137,34	952,00
3141,22	947,00
3145,09	869,00
3148,96	908,00
3152,83	949,00
3156,69	1022,00
3160,55	883,00
3164,40	939,00
3168,26	885,00
3172,10	1012,00
3175,95	993,00
3179,79	997,00
3183,63	929,00
3187,47	874,00
3191,30	930,00
3195,13	903,00
3198,95	795,00
3202,78	885,00
3206,60	861,00
3210,41	808,00
3214,23	843,00
3218,03	896,00
3221,84	885,00
3225,64	886,00
3229,44	784,00
3233,24	855,00
3237,03	801,00
3240,82	742,00
3244,61	749,00
3248,39	871,00
3252,17	809,00
3255,95	902,00
3259,72	858,00
3263,49	898,00
3267,26	810,00
3271,03	829,00
3274,79	752,00
3278,54	889,00
3282,30	736,00
3286,05	842,00
3289,80	856,00
3293,54	836,00
3297,29	821,00
3301,02	815,00
3304,76	909,00
3308,49	852,00
3312,22	803,00
3315,95	821,00
3319,67	634,00
3323,39	877,00
3327,10	849,00
3330,82	777,00
3334,53	848,00
3338,24	752,00
3341,94	763,00
3345,64	808,00
3349,34	723,00
3353,03	842,00
3356,72	795,00
3360,41	800,00
3364,10	706,00
3367,78	771,00
3371,46	776,00
3375,13	760,00
3378,81	831,00
3382,48	718,00
3386,14	746,00
3389,81	779,00
3393,47	771,00
3397,12	774,00
3400,78	748,00
3404,43	677,00
3408,08	847,00
3411,72	636,00
3415,36	739,00
3419,00	771,00
3422,64	718,00
3426,27	633,00
3429,90	713,00
3433,53	681,00
3437,15	748,00
3440,77	698,00
3444,39	697,00
3448,00	704,00
3451,62	707,00
3455,22	718,00
3458,83	707,00
3462,43	710,00
3466,03	778,00
3469,63	746,00
3473,22	632,00
3476,81	605,00
3480,40	806,00
3483,99	605,00
3487,57	773,00
3491,15	689,00
3494,72	698,00
3498,29	823,00
3501,86	621,00
3505,43	745,00
3508,99	592,00
3512,56	602,00
3516,11	751,00
3519,67	646,00
3523,22	786,00
3526,77	662,00
3530,32	812,00
3533,86	742,00
3537,40	723,00
3540,94	796,00
3544,47	682,00
3548,00	633,00
3551,53	705,00
3555,06	646,00
3558,58	746,00
3562,10	726,00
3565,62	613,00
3569,13	646,00
3572,64	759,00
3576,15	610,00
3579,66	695,00
3583,16	739,00
3586,66	727,00
3590,16	650,00
3593,65	604,00
3597,14	638,00
3600,63	701,00
3604,11	583,00
3607,60	701,00
3611,08	651,00
3614,55	694,00
3618,03	559,00
3621,50	588,00
3624,97	568,00
3628,43	601,00
3631,90	688,00
3635,36	534,00
3638,81	636,00
3642,27	561,00
3645,72	627,00
3649,17	621,00
3652,61	583,00
3656,06	552,00
3659,50	626,00
3662,93	657,00
3666,37	691,00
3669,80	757,00
3673,23	655,00
3676,65	599,00
3680,08	640,00
3683,50	560,00
3686,92	623,00
3690,33	572,00
3693,74	575,00
3697,15	590,00
3700,56	618,00
3703,96	625,00
3707,36	420,00
3710,76	529,00
3714,16	517,00
3717,55	564,00
3720,94	567,00
3724,33	576,00
3727,71	603,00
3731,10	561,00
3734,48	603,00
3737,85	490,00
3741,23	626,00
3744,60	577,00
3747,97	496,00
3751,33	643,00
3754,69	523,00
3758,05	556,00
3761,41	551,00
3764,77	474,00
3768,12	547,00
3771,47	536,00
3774,82	511,00
3778,16	-2,00
3781,50	15,00
3784,84	5,00
3788,18	8,00
>>>>>End Processed Spectral Data<<<<<
