SpectraSuite Data File
++++++++++++++++++++++++++++++++++++
Date: Mon Jan 05 16:28:52 ICT 2026
User: Administrator
Dark Spectrum Present: Yes
Reference Spectrum Present: No
Number of Sampled Component Spectra: 1
Spectrometers: MAYP113682
Integration Time (usec): 3000000 (MAYP113682)
Spectra Averaged: 1 (MAYP113682)
Boxcar Smoothing: 0 (MAYP113682)
Correct for Electrical Dark: No (MAYP113682)
Strobe/Lamp Enabled: No (MAYP113682)
Correct for Detector Non-linearity: No (MAYP113682)
Correct for Stray Light: No (MAYP113682)
Number of Pixels in Processed Spectrum: 2068
>>>>>Begin Processed Spectral Data<<<<<
-37534,58	24,00
-37414,56	6,00
-37295,11	4,00
-37176,24	6,00
-37057,95	415,00
-36940,22	456,00
-36823,05	518,00
-36706,45	544,00
-36590,40	534,00
-36474,90	535,00
-36359,95	538,00
-36245,55	584,00
-36131,68	580,00
-36018,35	557,00
-35905,55	577,00
-35793,29	609,00
-35681,54	525,00
-35570,32	480,00
-35459,62	623,00
-35349,43	666,00
-35239,75	652,00
-35130,58	578,00
-35021,91	612,00
-34913,74	564,00
-34806,07	636,00
-34698,89	644,00
-34592,20	514,00
-34486,00	607,00
-34380,28	653,00
-34275,04	486,00
-34170,27	489,00
-34065,98	614,00
-33962,16	617,00
-33858,81	652,00
-33755,92	584,00
-33653,49	733,00
-33551,52	738,00
-33450,01	639,00
-33348,94	636,00
-33248,33	567,00
-33148,16	596,00
-33048,43	573,00
-32949,14	732,00
-32850,29	674,00
-32751,87	548,00
-32653,89	654,00
-32556,33	618,00
-32459,20	516,00
-32362,49	653,00
-32266,19	582,00
-32170,32	573,00
-32074,86	677,00
-31979,82	632,00
-31885,18	710,00
-31790,95	734,00
-31697,12	706,00
-31603,69	688,00
-31510,67	705,00
-31418,04	619,00
-31325,80	584,00
-31233,95	565,00
-31142,49	624,00
-31051,42	635,00
-30960,73	797,00
-30870,43	715,00
-30780,50	640,00
-30690,95	539,00
-30601,77	680,00
-30512,97	638,00
-30424,53	687,00
-30336,46	671,00
-30248,76	682,00
-30161,42	737,00
-30074,44	629,00
-29987,81	674,00
-29901,55	727,00
-29815,63	633,00
-29730,07	700,00
-29644,86	718,00
-29560,00	632,00
-29475,48	757,00
-29391,30	694,00
-29307,47	682,00
-29223,97	642,00
-29140,81	671,00
-29057,99	656,00
-28975,50	538,00
-28893,34	698,00
-28811,51	607,00
-28730,00	719,00
-28648,82	646,00
-28567,97	679,00
-28487,43	600,00
-28407,21	667,00
-28327,32	600,00
-28247,73	716,00
-28168,46	605,00
-28089,50	763,00
-28010,85	586,00
-27932,51	487,00
-27854,48	655,00
-27776,75	639,00
-27699,32	612,00
-27622,19	635,00
-27545,37	694,00
-27468,84	679,00
-27392,60	668,00
-27316,66	686,00
-27241,01	581,00
-27165,66	685,00
-27090,59	532,00
-27015,81	711,00
-26941,31	622,00
-26867,10	613,00
-26793,17	690,00
-26719,52	693,00
-26646,15	576,00
-26573,06	651,00
-26500,24	618,00
-26427,70	667,00
-26355,43	557,00
-26283,43	695,00
-26211,71	694,00
-26140,25	651,00
-26069,06	652,00
-25998,13	593,00
-25927,46	603,00
-25857,06	575,00
-25786,92	635,00
-25717,04	602,00
-25647,42	675,00
-25578,05	603,00
-25508,94	638,00
-25440,09	567,00
-25371,48	639,00
-25303,13	714,00
-25235,02	581,00
-25167,17	607,00
-25099,56	666,00
-25032,19	641,00
-24965,07	582,00
-24898,20	597,00
-24831,56	657,00
-24765,17	615,00
-24699,01	547,00
-24633,10	718,00
-24567,41	678,00
-24501,97	500,00
-24436,75	627,00
-24371,77	664,00
-24307,03	567,00
-24242,51	695,00
-24178,22	604,00
-24114,16	537,00
-24050,32	638,00
-23986,71	629,00
-23923,32	638,00
-23860,16	666,00
-23797,22	642,00
-23734,50	520,00
-23672,00	660,00
-23609,71	656,00
-23547,65	561,00
-23485,80	680,00
-23424,16	472,00
-23362,74	768,00
-23301,53	652,00
-23240,54	623,00
-23179,75	518,00
-23119,17	545,00
-23058,80	656,00
-22998,64	699,00
-22938,68	606,00
-22878,93	640,00
-22819,39	543,00
-22760,04	542,00
-22700,90	585,00
-22641,96	599,00
-22583,22	593,00
-22524,68	609,00
-22466,33	585,00
-22408,19	585,00
-22350,23	577,00
-22292,48	624,00
-22234,92	697,00
-22177,55	677,00
-22120,37	755,00
-22063,38	590,00
-22006,58	671,00
-21949,98	571,00
-21893,56	473,00
-21837,33	640,00
-21781,28	609,00
-21725,42	619,00
-21669,74	671,00
-21614,25	580,00
-21558,94	623,00
-21503,81	702,00
-21448,86	712,00
-21394,10	579,00
-21339,51	548,00
-21285,10	485,00
-21230,86	600,00
-21176,81	576,00
-21122,93	507,00
-21069,22	551,00
-21015,69	617,00
-20962,33	690,00
-20909,14	553,00
-20856,13	615,00
-20803,28	609,00
-20750,61	552,00
-20698,10	514,00
-20645,76	549,00
-20593,59	681,00
-20541,59	649,00
-20489,75	661,00
-20438,07	529,00
-20386,56	689,00
-20335,22	585,00
-20284,03	597,00
-20233,01	616,00
-20182,15	573,00
-20131,45	635,00
-20080,91	522,00
-20030,52	643,00
-19980,30	634,00
-19930,23	582,00
-19880,32	692,00
-19830,56	537,00
-19780,96	607,00
-19731,52	604,00
-19682,23	652,00
-19633,09	583,00
-19584,10	531,00
-19535,26	580,00
-19486,58	747,00
-19438,04	604,00
-19389,66	707,00
-19341,42	601,00
-19293,33	677,00
-19245,39	606,00
-19197,60	662,00
-19149,95	672,00
-19102,45	596,00
-19055,09	545,00
-19007,87	503,00
-18960,80	697,00
-18913,87	649,00
-18867,09	569,00
-18820,44	711,00
-18773,94	625,00
-18727,57	721,00
-18681,35	493,00
-18635,26	619,00
-18589,31	536,00
-18543,50	560,00
-18497,83	574,00
-18452,29	645,00
-18406,89	523,00
-18361,63	638,00
-18316,50	699,00
-18271,50	589,00
-18226,63	654,00
-18181,90	640,00
-18137,30	691,00
-18092,84	584,00
-18048,50	662,00
-18004,29	587,00
-17960,22	544,00
-17916,27	607,00
-17872,45	632,00
-17828,76	720,00
-17785,20	574,00
-17741,77	638,00
-17698,46	690,00
-17655,28	596,00
-17612,22	669,00
-17569,29	517,00
-17526,48	632,00
-17483,79	687,00
-17441,23	553,00
-17398,79	663,00
-17356,48	519,00
-17314,28	676,00
-17272,21	641,00
-17230,26	595,00
-17188,42	604,00
-17146,71	644,00
-17105,12	563,00
-17063,64	604,00
-17022,28	608,00
-16981,04	510,00
-16939,92	707,00
-16898,91	741,00
-16858,02	541,00
-16817,25	607,00
-16776,59	587,00
-16736,04	621,00
-16695,61	653,00
-16655,29	667,00
-16615,09	603,00
-16574,99	557,00
-16535,01	618,00
-16495,15	605,00
-16455,39	646,00
-16415,74	569,00
-16376,21	524,00
-16336,78	669,00
-16297,46	653,00
-16258,26	545,00
-16219,16	647,00
-16180,17	603,00
-16141,28	655,00
-16102,51	658,00
-16063,84	569,00
-16025,27	624,00
-15986,82	554,00
-15948,46	645,00
-15910,22	610,00
-15872,07	588,00
-15834,04	616,00
-15796,10	574,00
-15758,27	716,00
-15720,54	629,00
-15682,91	629,00
-15645,39	811,00
-15607,97	676,00
-15570,64	561,00
-15533,42	632,00
-15496,30	563,00
-15459,28	662,00
-15422,36	620,00
-15385,54	596,00
-15348,82	693,00
-15312,19	795,00
-15275,66	528,00
-15239,23	676,00
-15202,90	636,00
-15166,67	613,00
-15130,53	685,00
-15094,48	663,00
-15058,54	612,00
-15022,68	600,00
-14986,93	589,00
-14951,26	631,00
-14915,69	680,00
-14880,22	553,00
-14844,84	625,00
-14809,55	636,00
-14774,35	656,00
-14739,25	560,00
-14704,24	629,00
-14669,32	620,00
-14634,49	548,00
-14599,75	687,00
-14565,10	580,00
-14530,55	651,00
-14496,08	613,00
-14461,70	657,00
-14427,41	585,00
-14393,21	472,00
-14359,10	584,00
-14325,07	624,00
-14291,14	570,00
-14257,29	660,00
-14223,52	628,00
-14189,85	634,00
-14156,26	642,00
-14122,76	615,00
-14089,34	533,00
-14056,01	612,00
-14022,76	531,00
-13989,60	626,00
-13956,52	638,00
-13923,53	619,00
-13890,62	590,00
-13857,79	652,00
-13825,05	534,00
-13792,39	521,00
-13759,81	595,00
-13727,31	584,00
-13694,90	552,00
-13662,57	729,00
-13630,31	656,00
-13598,14	660,00
-13566,05	515,00
-13534,05	590,00
-13502,12	575,00
-13470,27	598,00
-13438,50	659,00
-13406,80	531,00
-13375,19	605,00
-13343,66	634,00
-13312,20	592,00
-13280,83	549,00
-13249,53	664,00
-13218,30	536,00
-13187,16	574,00
-13156,09	771,00
-13125,10	625,00
-13094,18	615,00
-13063,34	629,00
-13032,58	552,00
-13001,89	709,00
-12971,28	602,00
-12940,74	583,00
-12910,27	673,00
-12879,88	634,00
-12849,57	688,00
-12819,33	589,00
-12789,16	622,00
-12759,06	597,00
-12729,04	613,00
-12699,09	1696,00
-12669,21	545,00
-12639,41	719,00
-12609,68	605,00
-12580,02	616,00
-12550,43	711,00
-12520,91	561,00
-12491,46	588,00
-12462,08	466,00
-12432,77	571,00
-12403,54	599,00
-12374,37	540,00
-12345,27	680,00
-12316,24	628,00
-12287,29	542,00
-12258,40	620,00
-12229,57	616,00
-12200,82	586,00
-12172,14	635,00
-12143,52	569,00
-12114,97	626,00
-12086,49	640,00
-12058,07	635,00
-12029,73	551,00
-12001,44	676,00
-11973,23	585,00
-11945,08	522,00
-11917,00	654,00
-11888,98	588,00
-11861,03	774,00
-11833,15	639,00
-11805,32	661,00
-11777,57	593,00
-11749,88	683,00
-11722,25	622,00
-11694,69	596,00
-11667,19	617,00
-11639,75	653,00
-11612,38	610,00
-11585,07	568,00
-11557,83	667,00
-11530,65	697,00
-11503,53	529,00
-11476,47	662,00
-11449,48	540,00
-11422,54	726,00
-11395,67	597,00
-11368,86	684,00
-11342,11	641,00
-11315,43	606,00
-11288,80	578,00
-11262,23	643,00
-11235,73	662,00
-11209,28	798,00
-11182,90	625,00
-11156,57	595,00
-11130,31	690,00
-11104,10	737,00
-11077,96	596,00
-11051,87	567,00
-11025,84	578,00
-10999,87	638,00
-10973,96	603,00
-10948,11	558,00
-10922,31	691,00
-10896,58	692,00
-10870,90	700,00
-10845,28	587,00
-10819,71	574,00
-10794,20	574,00
-10768,75	658,00
-10743,36	694,00
-10718,02	588,00
-10692,74	638,00
-10667,52	553,00
-10642,35	608,00
-10617,24	558,00
-10592,18	605,00
-10567,18	596,00
-10542,23	654,00
-10517,34	563,00
-10492,51	673,00
-10467,72	584,00
-10443,00	638,00
-10418,32	657,00
-10393,70	752,00
-10369,14	627,00
-10344,63	604,00
-10320,17	620,00
-10295,77	601,00
-10271,42	560,00
-10247,12	603,00
-10222,88	648,00
-10198,68	471,00
-10174,54	574,00
-10150,46	704,00
-10126,42	636,00
-10102,44	502,00
-10078,51	613,00
-10054,63	542,00
-10030,80	585,00
-10007,03	659,00
-9983,30	579,00
-9959,63	578,00
-9936,01	693,00
-9912,44	621,00
-9888,92	585,00
-9865,44	556,00
-9842,02	521,00
-9818,65	542,00
-9795,33	411,00
-9772,06	517,00
-9748,84	397,00
-9725,67	432,00
-9702,55	527,00
-9679,47	477,00
-9656,45	535,00
-9633,47	304,00
-9610,55	311,00
-9587,67	398,00
-9564,84	420,00
-9542,06	405,00
-9519,32	282,00
-9496,64	331,00
-9474,00	229,00
-9451,41	258,00
-9428,87	150,00
-9406,37	260,00
-9383,92	40,00
-9361,52	81,00
-9339,17	83,00
-9316,86	143,00
-9294,60	143,00
-9272,38	-116,00
-9250,21	109,00
-9228,09	29,00
-9206,01	29,00
-9183,98	25,00
-9162,00	-47,00
-9140,06	124,00
-9118,16	-60,00
-9096,31	-101,00
-9074,51	-28,00
-9052,75	42,00
-9031,04	106,00
-9009,37	40,00
-8987,74	226,00
-8966,16	268,00
-8944,63	125,00
-8923,14	184,00
-8901,69	103,00
-8880,29	34,00
-8858,93	166,00
-8837,61	139,00
-8816,34	169,00
-8795,11	224,00
-8773,92	-8,00
-8752,78	208,00
-8731,68	122,00
-8710,62	397,00
-8689,61	163,00
-8668,63	177,00
-8647,70	189,00
-8626,82	122,00
-8605,97	209,00
-8585,17	261,00
-8564,41	163,00
-8543,69	225,00
-8523,01	123,00
-8502,37	277,00
-8481,78	138,00
-8461,23	55,00
-8440,71	140,00
-8420,24	172,00
-8399,81	248,00
-8379,42	200,00
-8359,08	145,00
-8338,77	121,00
-8318,50	73,00
-8298,27	185,00
-8278,09	240,00
-8257,94	118,00
-8237,83	232,00
-8217,76	179,00
-8197,74	143,00
-8177,75	221,00
-8157,80	74,00
-8137,89	278,00
-8118,02	256,00
-8098,19	406,00
-8078,40	216,00
-8058,65	111,00
-8038,93	238,00
-8019,26	316,00
-7999,62	378,00
-7980,02	276,00
-7960,46	249,00
-7940,94	175,00
-7921,46	241,00
-7902,01	200,00
-7882,60	373,00
-7863,23	327,00
-7843,90	302,00
-7824,61	342,00
-7805,35	459,00
-7786,13	275,00
-7766,95	247,00
-7747,80	316,00
-7728,69	420,00
-7709,62	392,00
-7690,59	325,00
-7671,59	366,00
-7652,63	176,00
-7633,70	306,00
-7614,81	346,00
-7595,96	284,00
-7577,15	374,00
-7558,37	367,00
-7539,62	309,00
-7520,91	327,00
-7502,24	244,00
-7483,60	309,00
-7465,00	277,00
-7446,44	350,00
-7427,91	341,00
-7409,41	310,00
-7390,95	393,00
-7372,53	266,00
-7354,14	273,00
-7335,78	286,00
-7317,46	364,00
-7299,18	238,00
-7280,92	224,00
-7262,71	342,00
-7244,52	234,00
-7226,38	182,00
-7208,26	179,00
-7190,18	186,00
-7172,14	265,00
-7154,12	265,00
-7136,15	255,00
-7118,20	267,00
-7100,29	221,00
-7082,41	305,00
-7064,57	178,00
-7046,76	295,00
-7028,98	173,00
-7011,24	268,00
-6993,53	94,00
-6975,85	372,00
-6958,20	334,00
-6940,59	298,00
-6923,01	164,00
-6905,46	344,00
-6887,94	272,00
-6870,46	426,00
-6853,01	175,00
-6835,59	184,00
-6818,21	141,00
-6800,85	233,00
-6783,53	306,00
-6766,24	168,00
-6748,98	257,00
-6731,76	254,00
-6714,56	198,00
-6697,40	233,00
-6680,26	256,00
-6663,16	255,00
-6646,09	227,00
-6629,05	294,00
-6612,05	236,00
-6595,07	96,00
-6578,13	285,00
-6561,21	207,00
-6544,33	281,00
-6527,47	293,00
-6510,65	335,00
-6493,86	114,00
-6477,10	233,00
-6460,36	431,00
-6443,66	232,00
-6426,99	246,00
-6410,35	292,00
-6393,74	355,00
-6377,16	249,00
-6360,61	196,00
-6344,09	123,00
-6327,59	127,00
-6311,13	307,00
-6294,70	283,00
-6278,29	301,00
-6261,92	243,00
-6245,58	269,00
-6229,26	183,00
-6212,97	261,00
-6196,72	183,00
-6180,49	358,00
-6164,29	338,00
-6148,12	438,00
-6131,98	458,00
-6115,86	351,00
-6099,78	353,00
-6083,72	274,00
-6067,69	351,00
-6051,69	366,00
-6035,72	424,00
-6019,78	427,00
-6003,87	460,00
-5987,98	231,00
-5972,12	279,00
-5956,29	194,00
-5940,49	215,00
-5924,71	476,00
-5908,96	391,00
-5893,24	402,00
-5877,55	419,00
-5861,89	419,00
-5846,25	248,00
-5830,64	357,00
-5815,05	312,00
-5799,50	335,00
-5783,97	370,00
-5768,47	452,00
-5752,99	430,00
-5737,55	259,00
-5722,12	281,00
-5706,73	301,00
-5691,36	400,00
-5676,02	318,00
-5660,71	376,00
-5645,42	395,00
-5630,16	412,00
-5614,92	509,00
-5599,71	192,00
-5584,53	308,00
-5569,37	153,00
-5554,24	1229,00
-5539,14	266,00
-5524,06	362,00
-5509,01	435,00
-5493,98	333,00
-5478,98	347,00
-5464,00	253,00
-5449,05	386,00
-5434,13	304,00
-5419,23	454,00
-5404,36	302,00
-5389,51	349,00
-5374,69	324,00
-5359,89	207,00
-5345,12	320,00
-5330,37	477,00
-5315,65	285,00
-5300,95	440,00
-5286,28	379,00
-5271,63	212,00
-5257,01	345,00
-5242,41	341,00
-5227,84	245,00
-5213,29	489,00
-5198,76	409,00
-5184,26	457,00
-5169,79	385,00
-5155,33	397,00
-5140,91	266,00
-5126,51	288,00
-5112,13	276,00
-5097,77	402,00
-5083,44	554,00
-5069,13	422,00
-5054,85	402,00
-5040,59	440,00
-5026,36	353,00
-5012,15	367,00
-4997,96	341,00
-4983,80	429,00
-4969,66	480,00
-4955,54	422,00
-4941,44	343,00
-4927,37	232,00
-4913,33	284,00
-4899,30	202,00
-4885,30	266,00
-4871,33	298,00
-4857,37	438,00
-4843,44	499,00
-4829,53	509,00
-4815,65	482,00
-4801,79	365,00
-4787,95	467,00
-4774,13	326,00
-4760,34	471,00
-4746,56	612,00
-4732,82	432,00
-4719,09	434,00
-4705,38	463,00
-4691,70	327,00
-4678,04	419,00
-4664,41	512,00
-4650,79	592,00
-4637,20	440,00
-4623,63	474,00
-4610,08	541,00
-4596,56	347,00
-4583,05	291,00
-4569,57	401,00
-4556,11	641,00
-4542,67	529,00
-4529,25	479,00
-4515,86	396,00
-4502,49	382,00
-4489,13	340,00
-4475,80	535,00
-4462,49	395,00
-4449,21	617,00
-4435,94	540,00
-4422,70	400,00
-4409,47	326,00
-4396,27	443,00
-4383,09	390,00
-4369,93	526,00
-4356,79	483,00
-4343,67	581,00
-4330,58	585,00
-4317,50	511,00
-4304,45	495,00
-4291,41	659,00
-4278,40	575,00
-4265,41	571,00
-4252,44	567,00
-4239,49	437,00
-4226,55	511,00
-4213,65	514,00
-4200,76	638,00
-4187,89	617,00
-4175,04	448,00
-4162,21	417,00
-4149,40	586,00
-4136,61	519,00
-4123,85	590,00
-4111,10	608,00
-4098,37	660,00
-4085,66	613,00
-4072,98	592,00
-4060,31	578,00
-4047,66	685,00
-4035,04	709,00
-4022,43	568,00
-4009,84	595,00
-3997,27	511,00
-3984,72	613,00
-3972,19	644,00
-3959,69	589,00
-3947,20	580,00
-3934,73	593,00
-3922,27	516,00
-3909,84	601,00
-3897,43	625,00
-3885,04	689,00
-3872,67	619,00
-3860,31	565,00
-3847,98	717,00
-3835,66	669,00
-3823,36	624,00
-3811,09	640,00
-3798,83	668,00
-3786,59	582,00
-3774,37	738,00
-3762,17	463,00
-3749,98	592,00
-3737,82	512,00
-3725,67	715,00
-3713,55	637,00
-3701,44	655,00
-3689,35	628,00
-3677,28	635,00
-3665,22	590,00
-3653,19	591,00
-3641,17	600,00
-3629,18	720,00
-3617,20	648,00
-3605,24	628,00
-3593,30	730,00
-3581,37	711,00
-3569,47	551,00
-3557,58	679,00
-3545,71	634,00
-3533,86	654,00
-3522,02	657,00
-3510,21	665,00
-3498,41	585,00
-3486,63	644,00
-3474,87	621,00
-3463,12	596,00
-3451,40	644,00
-3439,69	674,00
-3428,00	645,00
-3416,33	669,00
-3404,67	626,00
-3393,03	597,00
-3381,41	743,00
-3369,81	730,00
-3358,22	672,00
-3346,66	730,00
-3335,10	691,00
-3323,57	623,00
-3312,06	612,00
-3300,56	659,00
-3289,08	635,00
-3277,61	601,00
-3266,16	707,00
-3254,73	579,00
-3243,32	573,00
-3231,92	574,00
-3220,55	672,00
-3209,18	747,00
-3197,84	547,00
-3186,51	578,00
-3175,20	498,00
-3163,90	558,00
-3152,63	717,00
-3141,36	608,00
-3130,12	697,00
-3118,89	651,00
-3107,68	594,00
-3096,49	603,00
-3085,31	582,00
-3074,15	709,00
-3063,00	702,00
-3051,87	624,00
-3040,76	578,00
-3029,67	780,00
-3018,59	801,00
-3007,52	811,00
-2996,48	652,00
-2985,44	638,00
-2974,43	671,00
-2963,43	542,00
-2952,45	645,00
-2941,48	648,00
-2930,53	713,00
-2919,60	509,00
-2908,68	564,00
-2897,78	613,00
-2886,89	641,00
-2876,02	677,00
-2865,17	610,00
-2854,33	607,00
-2843,50	672,00
-2832,70	677,00
-2821,90	637,00
-2811,13	702,00
-2800,37	596,00
-2789,62	445,00
-2778,89	677,00
-2768,18	665,00
-2757,48	706,00
-2746,80	703,00
-2736,13	658,00
-2725,48	688,00
-2714,84	557,00
-2704,22	694,00
-2693,61	555,00
-2683,02	601,00
-2672,45	638,00
-2661,89	672,00
-2651,34	655,00
-2640,81	658,00
-2630,30	723,00
-2619,80	590,00
-2609,31	678,00
-2598,84	651,00
-2588,39	696,00
-2577,95	607,00
-2567,52	585,00
-2557,11	580,00
-2546,71	625,00
-2536,33	712,00
-2525,97	644,00
-2515,62	709,00
-2505,28	652,00
-2494,96	549,00
-2484,65	694,00
-2474,36	841,00
-2464,08	609,00
-2453,82	761,00
-2443,57	628,00
-2433,33	571,00
-2423,11	727,00
-2412,91	653,00
-2402,72	557,00
-2392,54	650,00
-2382,38	536,00
-2372,23	658,00
-2362,09	1497,00
-2351,97	587,00
-2341,87	498,00
-2331,78	706,00
-2321,70	683,00
-2311,64	675,00
-2301,59	686,00
-2291,55	653,00
-2281,53	602,00
-2271,53	531,00
-2261,53	692,00
-2251,55	651,00
-2241,59	621,00
-2231,64	679,00
-2221,70	588,00
-2211,78	660,00
-2201,87	627,00
-2191,97	648,00
-2182,09	622,00
-2172,22	657,00
-2162,37	568,00
-2152,53	548,00
-2142,70	607,00
-2132,89	576,00
-2123,09	655,00
-2113,30	676,00
-2103,53	583,00
-2093,77	673,00
-2084,02	616,00
-2074,29	707,00
-2064,57	647,00
-2054,86	659,00
-2045,17	659,00
-2035,49	626,00
-2025,82	671,00
-2016,17	580,00
-2006,53	568,00
-1996,91	687,00
-1987,29	570,00
-1977,69	613,00
-1968,11	544,00
-1958,53	631,00
-1948,97	603,00
-1939,42	583,00
-1929,89	602,00
-1920,37	710,00
-1910,86	608,00
-1901,36	630,00
-1891,88	649,00
-1882,41	676,00
-1872,95	674,00
-1863,51	681,00
-1854,08	584,00
-1844,66	700,00
-1835,26	698,00
-1825,86	710,00
-1816,48	608,00
-1807,11	695,00
-1797,76	564,00
-1788,42	671,00
-1779,09	617,00
-1769,77	598,00
-1760,47	773,00
-1751,17	600,00
-1741,89	543,00
-1732,63	599,00
-1723,37	841,00
-1714,13	762,00
-1704,90	701,00
-1695,68	772,00
-1686,48	568,00
-1677,29	572,00
-1668,11	721,00
-1658,94	645,00
-1649,78	598,00
-1640,64	689,00
-1631,51	642,00
-1622,39	675,00
-1613,28	655,00
-1604,19	773,00
-1595,10	614,00
-1586,03	552,00
-1576,97	701,00
-1567,93	654,00
-1558,89	653,00
-1549,87	725,00
-1540,86	599,00
-1531,86	652,00
-1522,87	545,00
-1513,90	740,00
-1504,93	713,00
-1495,98	690,00
-1487,04	683,00
-1478,12	646,00
-1469,20	699,00
-1460,30	686,00
-1451,40	791,00
-1442,52	640,00
-1433,65	692,00
-1424,80	593,00
-1415,95	580,00
-1407,12	800,00
-1398,30	619,00
-1389,48	752,00
-1380,69	523,00
-1371,90	610,00
-1363,12	670,00
-1354,36	803,00
-1345,60	657,00
-1336,86	632,00
-1328,13	803,00
-1319,41	577,00
-1310,70	687,00
-1302,01	572,00
-1293,32	551,00
-1284,65	631,00
-1275,99	688,00
-1267,33	844,00
-1258,69	667,00
-1250,06	638,00
-1241,45	559,00
-1232,84	800,00
-1224,25	616,00
-1215,66	613,00
-1207,09	691,00
-1198,53	612,00
-1189,97	661,00
-1181,43	553,00
-1172,91	711,00
-1164,39	733,00
-1155,88	565,00
-1147,38	571,00
-1138,90	663,00
-1130,43	593,00
-1121,96	646,00
-1113,51	662,00
-1105,07	628,00
-1096,64	673,00
-1088,22	656,00
-1079,81	681,00
-1071,41	760,00
-1063,02	657,00
-1054,65	736,00
-1046,28	659,00
-1037,92	612,00
-1029,58	649,00
-1021,24	692,00
-1012,92	843,00
-1004,61	623,00
-996,30	853,00
-988,01	522,00
-979,73	654,00
-971,46	721,00
-963,20	645,00
-954,95	558,00
-946,71	646,00
-938,48	657,00
-930,26	667,00
-922,06	623,00
-913,86	560,00
-905,67	566,00
-897,49	692,00
-889,33	544,00
-881,17	683,00
-873,02	686,00
-864,89	587,00
-856,76	574,00
-848,65	757,00
-840,54	666,00
-832,45	627,00
-824,36	532,00
-816,29	656,00
-808,22	672,00
-800,17	707,00
-792,12	632,00
-784,09	731,00
-776,06	649,00
-768,05	691,00
-760,04	660,00
-752,05	603,00
-744,07	685,00
-736,09	715,00
-728,13	499,00
-720,17	678,00
-712,23	601,00
-704,29	599,00
-696,37	592,00
-688,45	907,00
-680,55	559,00
-672,65	588,00
-664,77	644,00
-656,89	696,00
-649,03	666,00
-641,17	733,00
-633,32	739,00
-625,49	705,00
-617,66	647,00
-609,84	666,00
-602,03	598,00
-594,23	705,00
-586,45	732,00
-578,67	666,00
-570,90	718,00
-563,14	530,00
-555,39	741,00
-547,65	679,00
-539,91	608,00
-532,19	699,00
-524,48	765,00
-516,78	569,00
-509,08	728,00
-501,40	696,00
-493,72	682,00
-486,06	604,00
-478,40	745,00
-470,76	608,00
-463,12	672,00
-455,49	683,00
-447,87	561,00
-440,26	617,00
-432,66	675,00
-425,07	670,00
-417,49	803,00
-409,92	579,00
-402,35	590,00
-394,80	600,00
-387,25	660,00
-379,72	712,00
-372,19	714,00
-364,67	757,00
-357,17	677,00
-349,67	766,00
-342,18	643,00
-334,69	779,00
-327,22	694,00
-319,76	763,00
-312,30	638,00
-304,86	649,00
-297,42	725,00
-290,00	698,00
-282,58	756,00
-275,17	776,00
-267,77	861,00
-260,37	773,00
-252,99	860,00
-245,62	841,00
-238,25	760,00
-230,90	788,00
-223,55	905,00
-216,21	853,00
-208,88	937,00
-201,56	928,00
-194,25	1023,00
-186,94	1081,00
-179,65	997,00
-172,36	1156,00
-165,08	1138,00
-157,81	1161,00
-150,55	1247,00
-143,30	1372,00
-136,06	1403,00
-128,82	1413,00
-121,60	1474,00
-114,38	1701,00
-107,17	1821,00
-99,97	2101,00
-92,78	2201,00
-85,60	2320,00
-78,42	2688,00
-71,25	2957,00
-64,10	3258,00
-56,95	3790,00
-49,81	4488,00
-42,67	5504,00
-35,55	6559,00
-28,43	8596,00
-21,33	13815,00
-14,23	43223,00
-7,14	57498,00
-0,05	57284,00
7,02	57012,00
14,09	57319,00
21,14	36346,00
28,19	16451,00
35,23	10708,00
42,27	8177,00
49,29	6772,00
56,31	5808,00
63,32	4982,00
70,32	4373,00
77,31	3698,00
84,29	3337,00
91,27	3035,00
98,23	2926,00
105,19	2918,00
112,14	3299,00
119,09	5269,00
126,02	8164,00
132,95	9380,00
139,87	9738,00
146,78	9702,00
153,68	9680,00
160,58	9643,00
167,46	9569,00
174,34	9564,00
181,21	9478,00
188,08	9487,00
194,93	9521,00
201,78	9515,00
208,62	9646,00
215,45	9658,00
222,27	9580,00
229,09	9567,00
235,90	9597,00
242,70	9479,00
249,49	9501,00
256,27	9378,00
263,05	9362,00
269,82	9424,00
276,58	9352,00
283,33	9278,00
290,08	9102,00
296,82	9217,00
303,55	8887,00
310,27	8959,00
316,98	8873,00
323,69	8961,00
330,39	8897,00
337,08	8959,00
343,76	9005,00
350,44	8925,00
357,11	8916,00
363,77	8874,00
370,42	8812,00
377,07	8856,00
383,71	8965,00
390,34	8843,00
396,96	8921,00
403,58	8964,00
410,19	9070,00
416,79	9050,00
423,38	9174,00
429,97	8972,00
436,55	8677,00
443,12	8734,00
449,68	8721,00
456,24	8534,00
462,79	8503,00
469,33	8554,00
475,86	8499,00
482,39	8530,00
488,91	8487,00
495,42	8334,00
501,93	8353,00
508,42	8260,00
514,91	8217,00
521,40	8248,00
527,87	8148,00
534,34	8124,00
540,80	8140,00
547,25	8118,00
553,70	8160,00
560,14	8183,00
566,57	8107,00
573,00	8030,00
579,41	8153,00
585,83	8171,00
592,23	8161,00
598,62	8102,00
605,01	7996,00
611,40	7976,00
617,77	8022,00
624,14	7890,00
630,50	7870,00
636,85	7934,00
643,20	7804,00
649,54	7688,00
655,87	7806,00
662,20	7656,00
668,52	7709,00
674,83	7804,00
681,13	7607,00
687,43	7674,00
693,72	7540,00
700,00	7483,00
706,28	7528,00
712,55	7624,00
718,81	7605,00
725,07	7516,00
731,32	7634,00
737,56	7652,00
743,79	7553,00
750,02	7607,00
756,24	7433,00
762,46	7461,00
768,67	7781,00
774,87	7496,00
781,06	7476,00
787,25	7556,00
793,43	7563,00
799,60	7413,00
805,77	7775,00
811,93	7462,00
818,08	7516,00
824,23	7471,00
830,37	7524,00
836,50	7323,00
842,63	7461,00
848,75	7402,00
854,87	7314,00
860,97	7377,00
867,07	7319,00
873,17	7467,00
879,25	7381,00
885,33	7256,00
891,41	7381,00
897,47	7174,00
903,53	7196,00
909,59	7197,00
915,63	7119,00
921,67	7086,00
927,71	6998,00
933,74	7055,00
939,76	6995,00
945,77	6994,00
951,78	6995,00
957,78	6928,00
963,78	7078,00
969,77	6988,00
975,75	6985,00
981,72	6845,00
987,69	7814,00
993,66	7144,00
999,61	7061,00
1005,56	6901,00
1011,51	7028,00
1017,44	7045,00
1023,37	7021,00
1029,30	6987,00
1035,22	7040,00
1041,13	7056,00
1047,03	7160,00
1052,93	7165,00
1058,83	7922,00
1064,71	8040,00
1070,59	7682,00
1076,47	7346,00
1082,33	7215,00
1088,20	7116,00
1094,05	6991,00
1099,90	6756,00
1105,74	6894,00
1111,58	6929,00
1117,41	7093,00
1123,23	7400,00
1129,05	7716,00
1134,86	7612,00
1140,67	7143,00
1146,47	7011,00
1152,26	6912,00
1158,05	6784,00
1163,83	6771,00
1169,60	6923,00
1175,37	6899,00
1181,13	6760,00
1186,89	6704,00
1192,64	6755,00
1198,38	6844,00
1204,12	6801,00
1209,85	6696,00
1215,58	6562,00
1221,30	6689,00
1227,02	6770,00
1232,72	6646,00
1238,43	6698,00
1244,12	6778,00
1249,81	6628,00
1255,50	6892,00
1261,17	6736,00
1266,85	6760,00
1272,51	6836,00
1278,17	6931,00
1283,83	6979,00
1289,47	7619,00
1295,12	8256,00
1300,75	8007,00
1306,38	7584,00
1312,01	7276,00
1317,63	7060,00
1323,24	6941,00
1328,85	6905,00
1334,45	6739,00
1340,04	6812,00
1345,63	6799,00
1351,22	6900,00
1356,80	6750,00
1362,37	6966,00
1367,93	6786,00
1373,49	6938,00
1379,05	6804,00
1384,60	6805,00
1390,14	6804,00
1395,68	6805,00
1401,21	6830,00
1406,74	6861,00
1412,26	7135,00
1417,77	7433,00
1423,28	7275,00
1428,78	7638,00
1434,28	8119,00
1439,77	8425,00
1445,26	8371,00
1450,74	8256,00
1456,22	8054,00
1461,68	7846,00
1467,15	7679,00
1472,61	7459,00
1478,06	7256,00
1483,51	6889,00
1488,95	6750,00
1494,38	6747,00
1499,81	6519,00
1505,24	6452,00
1510,65	6432,00
1516,07	6383,00
1521,48	6346,00
1526,88	6098,00
1532,27	6118,00
1537,67	6237,00
1543,05	6256,00
1548,43	6185,00
1553,81	6274,00
1559,18	6025,00
1564,54	6181,00
1569,90	6060,00
1575,25	6033,00
1580,60	5923,00
1585,94	6051,00
1591,28	5957,00
1596,61	5930,00
1601,93	6009,00
1607,25	5972,00
1612,57	5986,00
1617,88	5874,00
1623,18	6007,00
1628,48	5855,00
1633,77	5734,00
1639,06	5874,00
1644,34	5782,00
1649,62	5722,00
1654,89	5714,00
1660,16	5685,00
1665,42	5793,00
1670,67	5694,00
1675,92	5504,00
1681,17	5569,00
1686,41	5581,00
1691,64	5606,00
1696,87	5546,00
1702,10	5535,00
1707,32	5527,00
1712,53	5409,00
1717,74	5425,00
1722,94	5495,00
1728,14	5290,00
1733,33	5281,00
1738,52	5275,00
1743,70	5142,00
1748,88	5227,00
1754,05	5290,00
1759,22	5047,00
1764,38	4309,00
1769,53	5161,00
1774,69	5108,00
1779,83	5147,00
1784,97	4972,00
1790,11	5143,00
1795,24	4958,00
1800,36	5015,00
1805,48	4917,00
1810,60	5022,00
1815,71	4976,00
1820,82	4833,00
1825,92	4990,00
1831,01	4919,00
1836,10	4938,00
1841,19	4935,00
1846,26	4687,00
1851,34	4964,00
1856,41	4851,00
1861,47	4860,00
1866,53	4952,00
1871,59	4820,00
1876,64	4790,00
1881,68	4704,00
1886,72	4711,00
1891,76	4717,00
1896,79	4623,00
1901,81	4480,00
1906,83	4612,00
1911,85	4556,00
1916,86	4370,00
1921,86	4424,00
1926,86	4315,00
1931,86	4399,00
1936,85	4440,00
1941,83	4253,00
1946,81	4191,00
1951,79	4095,00
1956,76	4238,00
1961,72	4110,00
1966,68	4240,00
1971,64	4119,00
1976,59	4214,00
1981,54	4136,00
1986,48	4247,00
1991,42	4024,00
1996,35	4289,00
2001,27	4073,00
2006,20	3987,00
2011,11	4030,00
2016,03	4089,00
2020,93	4043,00
2025,84	4060,00
2030,73	4027,00
2035,63	3930,00
2040,52	4031,00
2045,40	3942,00
2050,28	3934,00
2055,15	3910,00
2060,02	3769,00
2064,89	3918,00
2069,75	3810,00
2074,60	3847,00
2079,46	3703,00
2084,30	3732,00
2089,14	3699,00
2093,98	3919,00
2098,81	3875,00
2103,64	3929,00
2108,46	3915,00
2113,28	3932,00
2118,09	3875,00
2122,90	3821,00
2127,70	3680,00
2132,50	3844,00
2137,30	3684,00
2142,09	3580,00
2146,87	3643,00
2151,66	3705,00
2156,43	3647,00
2161,20	3608,00
2165,97	3799,00
2170,73	3594,00
2175,49	3791,00
2180,24	3648,00
2184,99	3755,00
2189,74	3946,00
2194,48	3638,00
2199,21	3720,00
2203,94	3561,00
2208,67	3555,00
2213,39	3439,00
2218,11	3577,00
2222,82	3341,00
2227,53	3461,00
2232,23	3445,00
2236,93	3461,00
2241,63	3372,00
2246,32	3380,00
2251,00	3359,00
2255,68	3366,00
2260,36	3246,00
2265,03	3294,00
2269,70	3309,00
2274,36	3164,00
2279,02	3191,00
2283,68	3216,00
2288,33	3167,00
2292,97	3166,00
2297,61	3217,00
2302,25	3188,00
2306,88	3146,00
2311,51	3097,00
2316,14	3032,00
2320,75	3078,00
2325,37	3007,00
2329,98	3208,00
2334,59	3070,00
2339,19	3035,00
2343,79	2945,00
2348,38	2983,00
2352,97	2845,00
2357,55	3017,00
2362,13	2963,00
2366,71	2889,00
2371,28	2963,00
2375,85	2852,00
2380,41	2995,00
2384,97	2797,00
2389,52	2969,00
2394,07	2914,00
2398,62	2739,00
2403,16	2811,00
2407,70	2559,00
2412,23	2722,00
2416,76	2804,00
2421,29	2838,00
2425,81	2754,00
2430,32	2778,00
2434,84	2585,00
2439,34	2575,00
2443,85	2779,00
2448,35	2636,00
2452,84	2664,00
2457,33	2604,00
2461,82	2481,00
2466,30	2518,00
2470,78	2553,00
2475,25	2523,00
2479,72	2459,00
2484,19	2551,00
2488,65	2574,00
2493,11	2418,00
2497,56	2577,00
2502,01	2420,00
2506,46	2478,00
2510,90	2454,00
2515,34	2384,00
2519,77	2445,00
2524,20	2369,00
2528,62	2357,00
2533,04	2451,00
2537,46	2331,00
2541,87	2444,00
2546,28	2290,00
2550,68	2452,00
2555,08	2339,00
2559,48	2300,00
2563,87	2210,00
2568,26	2229,00
2572,64	2386,00
2577,02	2295,00
2581,40	2180,00
2585,77	2275,00
2590,14	2202,00
2594,50	2101,00
2598,86	2066,00
2603,22	2063,00
2607,57	2099,00
2611,92	2111,00
2616,26	2186,00
2620,60	2211,00
2624,94	2135,00
2629,27	2152,00
2633,60	2114,00
2637,92	2165,00
2642,24	2173,00
2646,56	2124,00
2650,87	2035,00
2655,18	2137,00
2659,48	2074,00
2663,78	2067,00
2668,08	2028,00
2672,37	2109,00
2676,66	1969,00
2680,95	1921,00
2685,23	2129,00
2689,50	1998,00
2693,78	2057,00
2698,05	1987,00
2702,31	2074,00
2706,57	2135,00
2710,83	2133,00
2715,08	2185,00
2719,33	2246,00
2723,58	2158,00
2727,82	2192,00
2732,06	2184,00
2736,29	2116,00
2740,53	2055,00
2744,75	1953,00
2748,97	2062,00
2753,19	2061,00
2757,41	2071,00
2761,62	2072,00
2765,83	2039,00
2770,03	1973,00
2774,23	2101,00
2778,43	1963,00
2782,62	1926,00
2786,81	2002,00
2791,00	2025,00
2795,18	2021,00
2799,35	2054,00
2803,53	2063,00
2807,70	2064,00
2811,86	2096,00
2816,03	2188,00
2820,19	2208,00
2824,34	2224,00
2828,49	2323,00
2832,64	2515,00
2836,78	2807,00
2840,92	3058,00
2845,06	3519,00
2849,19	3834,00
2853,32	3891,00
2857,45	3779,00
2861,57	3853,00
2865,69	3870,00
2869,80	3636,00
2873,91	3751,00
2878,02	3977,00
2882,12	4146,00
2886,22	3998,00
2890,32	3879,00
2894,41	3738,00
2898,50	3524,00
2902,58	3413,00
2906,67	3327,00
2910,74	3164,00
2914,82	2973,00
2918,89	3122,00
2922,96	2720,00
2927,02	2639,00
2931,08	2552,00
2935,13	2483,00
2939,19	2439,00
2943,24	2335,00
2947,28	2296,00
2951,32	2039,00
2955,36	1889,00
2959,40	2023,00
2963,43	1901,00
2967,46	1819,00
2971,48	1761,00
2975,50	1743,00
2979,52	1625,00
2983,53	1644,00
2987,54	1547,00
2991,55	1624,00
2995,55	1613,00
2999,55	1455,00
3003,54	1435,00
3007,54	1485,00
3011,53	1406,00
3015,51	1452,00
3019,49	1427,00
3023,47	1356,00
3027,45	1373,00
3031,42	1325,00
3035,39	1307,00
3039,35	1331,00
3043,31	1387,00
3047,27	1251,00
3051,22	1321,00
3055,17	1238,00
3059,12	1228,00
3063,06	1312,00
3067,00	1177,00
3070,94	1194,00
3074,87	1279,00
3078,80	1265,00
3082,73	1248,00
3086,65	1208,00
3090,57	1210,00
3094,49	1210,00
3098,40	1134,00
3102,31	1183,00
3106,22	1198,00
3110,12	1129,00
3114,02	1058,00
3117,92	1144,00
3121,81	1067,00
3125,70	1136,00
3129,58	1065,00
3133,47	1038,00
3137,34	1166,00
3141,22	1094,00
3145,09	1102,00
3148,96	1109,00
3152,83	1134,00
3156,69	1097,00
3160,55	1024,00
3164,40	1066,00
3168,26	1122,00
3172,10	1146,00
3175,95	1120,00
3179,79	1034,00
3183,63	1084,00
3187,47	1007,00
3191,30	1118,00
3195,13	990,00
3198,95	930,00
3202,78	1058,00
3206,60	976,00
3210,41	942,00
3214,23	1041,00
3218,03	1008,00
3221,84	971,00
3225,64	858,00
3229,44	936,00
3233,24	1110,00
3237,03	913,00
3240,82	939,00
3244,61	890,00
3248,39	942,00
3252,17	947,00
3255,95	988,00
3259,72	931,00
3263,49	1072,00
3267,26	906,00
3271,03	964,00
3274,79	884,00
3278,54	951,00
3282,30	827,00
3286,05	963,00
3289,80	979,00
3293,54	977,00
3297,29	871,00
3301,02	895,00
3304,76	856,00
3308,49	936,00
3312,22	781,00
3315,95	900,00
3319,67	885,00
3323,39	992,00
3327,10	907,00
3330,82	835,00
3334,53	891,00
3338,24	866,00
3341,94	821,00
3345,64	808,00
3349,34	923,00
3353,03	871,00
3356,72	808,00
3360,41	893,00
3364,10	751,00
3367,78	825,00
3371,46	868,00
3375,13	828,00
3378,81	849,00
3382,48	807,00
3386,14	882,00
3389,81	877,00
3393,47	830,00
3397,12	935,00
3400,78	915,00
3404,43	766,00
3408,08	855,00
3411,72	719,00
3415,36	767,00
3419,00	823,00
3422,64	773,00
3426,27	781,00
3429,90	850,00
3433,53	700,00
3437,15	772,00
3440,77	633,00
3444,39	703,00
3448,00	730,00
3451,62	765,00
3455,22	798,00
3458,83	647,00
3462,43	744,00
3466,03	759,00
3469,63	707,00
3473,22	681,00
3476,81	695,00
3480,40	819,00
3483,99	698,00
3487,57	769,00
3491,15	719,00
3494,72	835,00
3498,29	812,00
3501,86	718,00
3505,43	639,00
3508,99	701,00
3512,56	574,00
3516,11	679,00
3519,67	778,00
3523,22	721,00
3526,77	602,00
3530,32	922,00
3533,86	778,00
3537,40	800,00
3540,94	691,00
3544,47	740,00
3548,00	645,00
3551,53	698,00
3555,06	642,00
3558,58	734,00
3562,10	708,00
3565,62	635,00
3569,13	639,00
3572,64	747,00
3576,15	591,00
3579,66	621,00
3583,16	617,00
3586,66	658,00
3590,16	612,00
3593,65	615,00
3597,14	578,00
3600,63	665,00
3604,11	708,00
3607,60	665,00
3611,08	674,00
3614,55	689,00
3618,03	582,00
3621,50	601,00
3624,97	583,00
3628,43	617,00
3631,90	604,00
3635,36	611,00
3638,81	614,00
3642,27	610,00
3645,72	615,00
3649,17	574,00
3652,61	591,00
3656,06	562,00
3659,50	629,00
3662,93	639,00
3666,37	718,00
3669,80	752,00
3673,23	633,00
3676,65	586,00
3680,08	618,00
3683,50	592,00
3686,92	562,00
3690,33	597,00
3693,74	640,00
3697,15	650,00
3700,56	661,00
3703,96	653,00
3707,36	543,00
3710,76	616,00
3714,16	591,00
3717,55	545,00
3720,94	512,00
3724,33	648,00
3727,71	621,00
3731,10	586,00
3734,48	605,00
3737,85	493,00
3741,23	470,00
3744,60	522,00
3747,97	454,00
3751,33	636,00
3754,69	508,00
3758,05	548,00
3761,41	516,00
3764,77	449,00
3768,12	548,00
3771,47	483,00
3774,82	558,00
3778,16	-3,00
3781,50	14,00
3784,84	-2,00
3788,18	8,00
>>>>>End Processed Spectral Data<<<<<
