SpectraSuite Data File
++++++++++++++++++++++++++++++++++++
Date: Mon Jan 05 16:25:55 ICT 2026
User: Administrator
Dark Spectrum Present: Yes
Reference Spectrum Present: No
Number of Sampled Component Spectra: 1
Spectrometers: MAYP113682
Integration Time (usec): 3000000 (MAYP113682)
Spectra Averaged: 1 (MAYP113682)
Boxcar Smoothing: 0 (MAYP113682)
Correct for Electrical Dark: No (MAYP113682)
Strobe/Lamp Enabled: No (MAYP113682)
Correct for Detector Non-linearity: No (MAYP113682)
Correct for Stray Light: No (MAYP113682)
Number of Pixels in Processed Spectrum: 2068
>>>>>Begin Processed Spectral Data<<<<<
-37534,58	18,00
-37414,56	13,00
-37295,11	6,00
-37176,24	-2,00
-37057,95	289,00
-36940,22	286,00
-36823,05	416,00
-36706,45	350,00
-36590,40	421,00
-36474,90	409,00
-36359,95	384,00
-36245,55	491,00
-36131,68	383,00
-36018,35	380,00
-35905,55	431,00
-35793,29	510,00
-35681,54	408,00
-35570,32	388,00
-35459,62	385,00
-35349,43	485,00
-35239,75	429,00
-35130,58	470,00
-35021,91	457,00
-34913,74	453,00
-34806,07	444,00
-34698,89	445,00
-34592,20	415,00
-34486,00	456,00
-34380,28	457,00
-34275,04	372,00
-34170,27	359,00
-34065,98	525,00
-33962,16	388,00
-33858,81	484,00
-33755,92	476,00
-33653,49	557,00
-33551,52	450,00
-33450,01	472,00
-33348,94	470,00
-33248,33	384,00
-33148,16	472,00
-33048,43	383,00
-32949,14	552,00
-32850,29	553,00
-32751,87	393,00
-32653,89	534,00
-32556,33	445,00
-32459,20	430,00
-32362,49	513,00
-32266,19	479,00
-32170,32	385,00
-32074,86	478,00
-31979,82	512,00
-31885,18	461,00
-31790,95	470,00
-31697,12	543,00
-31603,69	454,00
-31510,67	487,00
-31418,04	444,00
-31325,80	422,00
-31233,95	368,00
-31142,49	486,00
-31051,42	425,00
-30960,73	486,00
-30870,43	532,00
-30780,50	531,00
-30690,95	508,00
-30601,77	545,00
-30512,97	503,00
-30424,53	438,00
-30336,46	459,00
-30248,76	481,00
-30161,42	526,00
-30074,44	496,00
-29987,81	466,00
-29901,55	527,00
-29815,63	435,00
-29730,07	513,00
-29644,86	402,00
-29560,00	522,00
-29475,48	486,00
-29391,30	555,00
-29307,47	449,00
-29223,97	388,00
-29140,81	496,00
-29057,99	527,00
-28975,50	336,00
-28893,34	525,00
-28811,51	465,00
-28730,00	517,00
-28648,82	453,00
-28567,97	596,00
-28487,43	504,00
-28407,21	501,00
-28327,32	448,00
-28247,73	589,00
-28168,46	409,00
-28089,50	410,00
-28010,85	377,00
-27932,51	385,00
-27854,48	461,00
-27776,75	424,00
-27699,32	478,00
-27622,19	496,00
-27545,37	496,00
-27468,84	501,00
-27392,60	432,00
-27316,66	497,00
-27241,01	503,00
-27165,66	419,00
-27090,59	379,00
-27015,81	516,00
-26941,31	605,00
-26867,10	375,00
-26793,17	515,00
-26719,52	427,00
-26646,15	397,00
-26573,06	392,00
-26500,24	396,00
-26427,70	547,00
-26355,43	376,00
-26283,43	387,00
-26211,71	487,00
-26140,25	488,00
-26069,06	524,00
-25998,13	447,00
-25927,46	407,00
-25857,06	393,00
-25786,92	383,00
-25717,04	440,00
-25647,42	491,00
-25578,05	455,00
-25508,94	424,00
-25440,09	494,00
-25371,48	439,00
-25303,13	586,00
-25235,02	484,00
-25167,17	403,00
-25099,56	453,00
-25032,19	501,00
-24965,07	395,00
-24898,20	419,00
-24831,56	462,00
-24765,17	499,00
-24699,01	369,00
-24633,10	432,00
-24567,41	482,00
-24501,97	416,00
-24436,75	469,00
-24371,77	453,00
-24307,03	426,00
-24242,51	504,00
-24178,22	469,00
-24114,16	420,00
-24050,32	476,00
-23986,71	479,00
-23923,32	464,00
-23860,16	558,00
-23797,22	451,00
-23734,50	420,00
-23672,00	418,00
-23609,71	465,00
-23547,65	421,00
-23485,80	499,00
-23424,16	375,00
-23362,74	591,00
-23301,53	518,00
-23240,54	346,00
-23179,75	399,00
-23119,17	357,00
-23058,80	395,00
-22998,64	529,00
-22938,68	401,00
-22878,93	464,00
-22819,39	373,00
-22760,04	470,00
-22700,90	342,00
-22641,96	433,00
-22583,22	470,00
-22524,68	490,00
-22466,33	511,00
-22408,19	442,00
-22350,23	424,00
-22292,48	424,00
-22234,92	476,00
-22177,55	503,00
-22120,37	508,00
-22063,38	385,00
-22006,58	422,00
-21949,98	408,00
-21893,56	385,00
-21837,33	413,00
-21781,28	465,00
-21725,42	463,00
-21669,74	540,00
-21614,25	409,00
-21558,94	491,00
-21503,81	557,00
-21448,86	540,00
-21394,10	468,00
-21339,51	492,00
-21285,10	414,00
-21230,86	401,00
-21176,81	438,00
-21122,93	496,00
-21069,22	297,00
-21015,69	502,00
-20962,33	430,00
-20909,14	435,00
-20856,13	488,00
-20803,28	483,00
-20750,61	481,00
-20698,10	428,00
-20645,76	404,00
-20593,59	587,00
-20541,59	509,00
-20489,75	499,00
-20438,07	363,00
-20386,56	509,00
-20335,22	377,00
-20284,03	436,00
-20233,01	446,00
-20182,15	407,00
-20131,45	441,00
-20080,91	411,00
-20030,52	449,00
-19980,30	488,00
-19930,23	391,00
-19880,32	499,00
-19830,56	428,00
-19780,96	399,00
-19731,52	400,00
-19682,23	486,00
-19633,09	388,00
-19584,10	391,00
-19535,26	508,00
-19486,58	556,00
-19438,04	338,00
-19389,66	526,00
-19341,42	420,00
-19293,33	427,00
-19245,39	423,00
-19197,60	577,00
-19149,95	527,00
-19102,45	457,00
-19055,09	337,00
-19007,87	436,00
-18960,80	543,00
-18913,87	437,00
-18867,09	486,00
-18820,44	582,00
-18773,94	526,00
-18727,57	480,00
-18681,35	360,00
-18635,26	494,00
-18589,31	409,00
-18543,50	398,00
-18497,83	459,00
-18452,29	427,00
-18406,89	378,00
-18361,63	556,00
-18316,50	449,00
-18271,50	488,00
-18226,63	467,00
-18181,90	407,00
-18137,30	449,00
-18092,84	368,00
-18048,50	393,00
-18004,29	395,00
-17960,22	337,00
-17916,27	462,00
-17872,45	409,00
-17828,76	601,00
-17785,20	405,00
-17741,77	528,00
-17698,46	514,00
-17655,28	474,00
-17612,22	396,00
-17569,29	371,00
-17526,48	467,00
-17483,79	516,00
-17441,23	295,00
-17398,79	455,00
-17356,48	387,00
-17314,28	506,00
-17272,21	427,00
-17230,26	453,00
-17188,42	427,00
-17146,71	433,00
-17105,12	385,00
-17063,64	498,00
-17022,28	418,00
-16981,04	354,00
-16939,92	446,00
-16898,91	622,00
-16858,02	399,00
-16817,25	502,00
-16776,59	508,00
-16736,04	416,00
-16695,61	464,00
-16655,29	412,00
-16615,09	428,00
-16574,99	470,00
-16535,01	469,00
-16495,15	487,00
-16455,39	485,00
-16415,74	396,00
-16376,21	484,00
-16336,78	474,00
-16297,46	440,00
-16258,26	440,00
-16219,16	395,00
-16180,17	521,00
-16141,28	440,00
-16102,51	529,00
-16063,84	388,00
-16025,27	404,00
-15986,82	392,00
-15948,46	408,00
-15910,22	486,00
-15872,07	376,00
-15834,04	428,00
-15796,10	469,00
-15758,27	632,00
-15720,54	506,00
-15682,91	417,00
-15645,39	585,00
-15607,97	413,00
-15570,64	335,00
-15533,42	459,00
-15496,30	467,00
-15459,28	513,00
-15422,36	457,00
-15385,54	381,00
-15348,82	518,00
-15312,19	557,00
-15275,66	419,00
-15239,23	483,00
-15202,90	361,00
-15166,67	508,00
-15130,53	555,00
-15094,48	507,00
-15058,54	355,00
-15022,68	445,00
-14986,93	396,00
-14951,26	481,00
-14915,69	507,00
-14880,22	446,00
-14844,84	491,00
-14809,55	451,00
-14774,35	408,00
-14739,25	370,00
-14704,24	435,00
-14669,32	474,00
-14634,49	333,00
-14599,75	395,00
-14565,10	393,00
-14530,55	491,00
-14496,08	448,00
-14461,70	511,00
-14427,41	425,00
-14393,21	312,00
-14359,10	394,00
-14325,07	502,00
-14291,14	427,00
-14257,29	475,00
-14223,52	419,00
-14189,85	478,00
-14156,26	485,00
-14122,76	380,00
-14089,34	316,00
-14056,01	451,00
-14022,76	389,00
-13989,60	496,00
-13956,52	480,00
-13923,53	436,00
-13890,62	418,00
-13857,79	411,00
-13825,05	415,00
-13792,39	439,00
-13759,81	504,00
-13727,31	419,00
-13694,90	490,00
-13662,57	591,00
-13630,31	600,00
-13598,14	451,00
-13566,05	416,00
-13534,05	389,00
-13502,12	428,00
-13470,27	445,00
-13438,50	494,00
-13406,80	396,00
-13375,19	471,00
-13343,66	488,00
-13312,20	486,00
-13280,83	454,00
-13249,53	475,00
-13218,30	373,00
-13187,16	453,00
-13156,09	592,00
-13125,10	446,00
-13094,18	411,00
-13063,34	426,00
-13032,58	383,00
-13001,89	434,00
-12971,28	441,00
-12940,74	451,00
-12910,27	454,00
-12879,88	541,00
-12849,57	544,00
-12819,33	416,00
-12789,16	510,00
-12759,06	397,00
-12729,04	345,00
-12699,09	338,00
-12669,21	412,00
-12639,41	520,00
-12609,68	454,00
-12580,02	431,00
-12550,43	513,00
-12520,91	332,00
-12491,46	510,00
-12462,08	317,00
-12432,77	498,00
-12403,54	325,00
-12374,37	343,00
-12345,27	522,00
-12316,24	443,00
-12287,29	467,00
-12258,40	472,00
-12229,57	474,00
-12200,82	387,00
-12172,14	460,00
-12143,52	335,00
-12114,97	422,00
-12086,49	445,00
-12058,07	481,00
-12029,73	423,00
-12001,44	491,00
-11973,23	515,00
-11945,08	400,00
-11917,00	520,00
-11888,98	415,00
-11861,03	570,00
-11833,15	464,00
-11805,32	410,00
-11777,57	444,00
-11749,88	499,00
-11722,25	358,00
-11694,69	494,00
-11667,19	484,00
-11639,75	581,00
-11612,38	338,00
-11585,07	412,00
-11557,83	470,00
-11530,65	556,00
-11503,53	405,00
-11476,47	476,00
-11449,48	431,00
-11422,54	489,00
-11395,67	523,00
-11368,86	489,00
-11342,11	435,00
-11315,43	428,00
-11288,80	453,00
-11262,23	460,00
-11235,73	431,00
-11209,28	576,00
-11182,90	365,00
-11156,57	367,00
-11130,31	509,00
-11104,10	498,00
-11077,96	430,00
-11051,87	444,00
-11025,84	385,00
-10999,87	494,00
-10973,96	442,00
-10948,11	411,00
-10922,31	407,00
-10896,58	456,00
-10870,90	498,00
-10845,28	484,00
-10819,71	424,00
-10794,20	501,00
-10768,75	537,00
-10743,36	527,00
-10718,02	438,00
-10692,74	333,00
-10667,52	443,00
-10642,35	481,00
-10617,24	462,00
-10592,18	477,00
-10567,18	408,00
-10542,23	460,00
-10517,34	476,00
-10492,51	531,00
-10467,72	431,00
-10443,00	470,00
-10418,32	473,00
-10393,70	539,00
-10369,14	422,00
-10344,63	365,00
-10320,17	469,00
-10295,77	515,00
-10271,42	398,00
-10247,12	469,00
-10222,88	499,00
-10198,68	414,00
-10174,54	494,00
-10150,46	582,00
-10126,42	514,00
-10102,44	476,00
-10078,51	452,00
-10054,63	543,00
-10030,80	398,00
-10007,03	574,00
-9983,30	487,00
-9959,63	521,00
-9936,01	599,00
-9912,44	511,00
-9888,92	582,00
-9865,44	457,00
-9842,02	442,00
-9818,65	548,00
-9795,33	431,00
-9772,06	539,00
-9748,84	652,00
-9725,67	469,00
-9702,55	573,00
-9679,47	560,00
-9656,45	724,00
-9633,47	506,00
-9610,55	562,00
-9587,67	751,00
-9564,84	810,00
-9542,06	730,00
-9519,32	892,00
-9496,64	892,00
-9474,00	781,00
-9451,41	807,00
-9428,87	757,00
-9406,37	861,00
-9383,92	815,00
-9361,52	802,00
-9339,17	1025,00
-9316,86	929,00
-9294,60	1058,00
-9272,38	1031,00
-9250,21	1223,00
-9228,09	1172,00
-9206,01	1207,00
-9183,98	1191,00
-9162,00	1012,00
-9140,06	1064,00
-9118,16	907,00
-9096,31	1021,00
-9074,51	1095,00
-9052,75	1093,00
-9031,04	1094,00
-9009,37	1011,00
-8987,74	1083,00
-8966,16	1002,00
-8944,63	832,00
-8923,14	959,00
-8901,69	877,00
-8880,29	901,00
-8858,93	942,00
-8837,61	1061,00
-8816,34	1072,00
-8795,11	1149,00
-8773,92	864,00
-8752,78	1021,00
-8731,68	932,00
-8710,62	961,00
-8689,61	806,00
-8668,63	911,00
-8647,70	943,00
-8626,82	1034,00
-8605,97	1109,00
-8585,17	981,00
-8564,41	873,00
-8543,69	867,00
-8523,01	814,00
-8502,37	972,00
-8481,78	827,00
-8461,23	776,00
-8440,71	889,00
-8420,24	879,00
-8399,81	1069,00
-8379,42	1023,00
-8359,08	990,00
-8338,77	843,00
-8318,50	742,00
-8298,27	700,00
-8278,09	879,00
-8257,94	734,00
-8237,83	851,00
-8217,76	873,00
-8197,74	885,00
-8177,75	882,00
-8157,80	774,00
-8137,89	837,00
-8118,02	792,00
-8098,19	835,00
-8078,40	828,00
-8058,65	766,00
-8038,93	843,00
-8019,26	924,00
-7999,62	758,00
-7980,02	770,00
-7960,46	795,00
-7940,94	729,00
-7921,46	632,00
-7902,01	677,00
-7882,60	769,00
-7863,23	727,00
-7843,90	677,00
-7824,61	894,00
-7805,35	967,00
-7786,13	843,00
-7766,95	836,00
-7747,80	857,00
-7728,69	779,00
-7709,62	750,00
-7690,59	727,00
-7671,59	888,00
-7652,63	829,00
-7633,70	854,00
-7614,81	820,00
-7595,96	702,00
-7577,15	758,00
-7558,37	676,00
-7539,62	689,00
-7520,91	619,00
-7502,24	829,00
-7483,60	713,00
-7465,00	736,00
-7446,44	743,00
-7427,91	671,00
-7409,41	686,00
-7390,95	724,00
-7372,53	613,00
-7354,14	646,00
-7335,78	589,00
-7317,46	579,00
-7299,18	506,00
-7280,92	549,00
-7262,71	671,00
-7244,52	709,00
-7226,38	702,00
-7208,26	680,00
-7190,18	572,00
-7172,14	604,00
-7154,12	686,00
-7136,15	616,00
-7118,20	639,00
-7100,29	756,00
-7082,41	728,00
-7064,57	643,00
-7046,76	745,00
-7028,98	596,00
-7011,24	633,00
-6993,53	462,00
-6975,85	649,00
-6958,20	562,00
-6940,59	515,00
-6923,01	445,00
-6905,46	627,00
-6887,94	553,00
-6870,46	-1476,00
-6853,01	623,00
-6835,59	631,00
-6818,21	560,00
-6800,85	684,00
-6783,53	574,00
-6766,24	567,00
-6748,98	600,00
-6731,76	535,00
-6714,56	505,00
-6697,40	507,00
-6680,26	441,00
-6663,16	469,00
-6646,09	563,00
-6629,05	526,00
-6612,05	541,00
-6595,07	535,00
-6578,13	589,00
-6561,21	464,00
-6544,33	477,00
-6527,47	412,00
-6510,65	539,00
-6493,86	412,00
-6477,10	473,00
-6460,36	559,00
-6443,66	479,00
-6426,99	466,00
-6410,35	517,00
-6393,74	502,00
-6377,16	399,00
-6360,61	479,00
-6344,09	404,00
-6327,59	400,00
-6311,13	633,00
-6294,70	495,00
-6278,29	459,00
-6261,92	443,00
-6245,58	577,00
-6229,26	619,00
-6212,97	582,00
-6196,72	492,00
-6180,49	490,00
-6164,29	446,00
-6148,12	532,00
-6131,98	503,00
-6115,86	472,00
-6099,78	366,00
-6083,72	417,00
-6067,69	361,00
-6051,69	393,00
-6035,72	557,00
-6019,78	491,00
-6003,87	509,00
-5987,98	572,00
-5972,12	536,00
-5956,29	469,00
-5940,49	368,00
-5924,71	549,00
-5908,96	546,00
-5893,24	492,00
-5877,55	430,00
-5861,89	539,00
-5846,25	363,00
-5830,64	471,00
-5815,05	477,00
-5799,50	490,00
-5783,97	449,00
-5768,47	415,00
-5752,99	532,00
-5737,55	445,00
-5722,12	511,00
-5706,73	514,00
-5691,36	483,00
-5676,02	452,00
-5660,71	341,00
-5645,42	471,00
-5630,16	483,00
-5614,92	560,00
-5599,71	415,00
-5584,53	462,00
-5569,37	446,00
-5554,24	1316,00
-5539,14	434,00
-5524,06	531,00
-5509,01	440,00
-5493,98	460,00
-5478,98	475,00
-5464,00	392,00
-5449,05	441,00
-5434,13	582,00
-5419,23	412,00
-5404,36	408,00
-5389,51	447,00
-5374,69	516,00
-5359,89	467,00
-5345,12	512,00
-5330,37	631,00
-5315,65	447,00
-5300,95	455,00
-5286,28	478,00
-5271,63	426,00
-5257,01	527,00
-5242,41	517,00
-5227,84	434,00
-5213,29	451,00
-5198,76	507,00
-5184,26	418,00
-5169,79	398,00
-5155,33	376,00
-5140,91	408,00
-5126,51	424,00
-5112,13	489,00
-5097,77	469,00
-5083,44	511,00
-5069,13	569,00
-5054,85	1305,00
-5040,59	975,00
-5026,36	547,00
-5012,15	567,00
-4997,96	496,00
-4983,80	462,00
-4969,66	463,00
-4955,54	414,00
-4941,44	510,00
-4927,37	400,00
-4913,33	441,00
-4899,30	478,00
-4885,30	546,00
-4871,33	324,00
-4857,37	457,00
-4843,44	416,00
-4829,53	560,00
-4815,65	509,00
-4801,79	402,00
-4787,95	491,00
-4774,13	556,00
-4760,34	434,00
-4746,56	548,00
-4732,82	394,00
-4719,09	452,00
-4705,38	607,00
-4691,70	502,00
-4678,04	624,00
-4664,41	526,00
-4650,79	605,00
-4637,20	427,00
-4623,63	446,00
-4610,08	498,00
-4596,56	436,00
-4583,05	447,00
-4569,57	417,00
-4556,11	598,00
-4542,67	445,00
-4529,25	442,00
-4515,86	457,00
-4502,49	507,00
-4489,13	528,00
-4475,80	571,00
-4462,49	415,00
-4449,21	463,00
-4435,94	498,00
-4422,70	430,00
-4409,47	369,00
-4396,27	592,00
-4383,09	455,00
-4369,93	447,00
-4356,79	424,00
-4343,67	460,00
-4330,58	475,00
-4317,50	525,00
-4304,45	501,00
-4291,41	500,00
-4278,40	457,00
-4265,41	417,00
-4252,44	469,00
-4239,49	449,00
-4226,55	450,00
-4213,65	506,00
-4200,76	503,00
-4187,89	472,00
-4175,04	429,00
-4162,21	375,00
-4149,40	557,00
-4136,61	422,00
-4123,85	417,00
-4111,10	539,00
-4098,37	454,00
-4085,66	498,00
-4072,98	501,00
-4060,31	415,00
-4047,66	549,00
-4035,04	525,00
-4022,43	480,00
-4009,84	397,00
-3997,27	354,00
-3984,72	528,00
-3972,19	515,00
-3959,69	542,00
-3947,20	439,00
-3934,73	470,00
-3922,27	387,00
-3909,84	430,00
-3897,43	517,00
-3885,04	502,00
-3872,67	463,00
-3860,31	417,00
-3847,98	566,00
-3835,66	430,00
-3823,36	422,00
-3811,09	424,00
-3798,83	485,00
-3786,59	428,00
-3774,37	515,00
-3762,17	370,00
-3749,98	440,00
-3737,82	501,00
-3725,67	520,00
-3713,55	417,00
-3701,44	505,00
-3689,35	441,00
-3677,28	511,00
-3665,22	403,00
-3653,19	420,00
-3641,17	389,00
-3629,18	492,00
-3617,20	463,00
-3605,24	467,00
-3593,30	493,00
-3581,37	529,00
-3569,47	469,00
-3557,58	521,00
-3545,71	444,00
-3533,86	525,00
-3522,02	393,00
-3510,21	564,00
-3498,41	407,00
-3486,63	425,00
-3474,87	438,00
-3463,12	496,00
-3451,40	401,00
-3439,69	496,00
-3428,00	350,00
-3416,33	503,00
-3404,67	414,00
-3393,03	421,00
-3381,41	516,00
-3369,81	428,00
-3358,22	542,00
-3346,66	526,00
-3335,10	513,00
-3323,57	435,00
-3312,06	517,00
-3300,56	461,00
-3289,08	420,00
-3277,61	426,00
-3266,16	410,00
-3254,73	469,00
-3243,32	374,00
-3231,92	380,00
-3220,55	495,00
-3209,18	575,00
-3197,84	426,00
-3186,51	423,00
-3175,20	434,00
-3163,90	417,00
-3152,63	537,00
-3141,36	397,00
-3130,12	421,00
-3118,89	499,00
-3107,68	365,00
-3096,49	465,00
-3085,31	464,00
-3074,15	545,00
-3063,00	470,00
-3051,87	478,00
-3040,76	427,00
-3029,67	623,00
-3018,59	549,00
-3007,52	589,00
-2996,48	442,00
-2985,44	468,00
-2974,43	408,00
-2963,43	428,00
-2952,45	576,00
-2941,48	446,00
-2930,53	495,00
-2919,60	399,00
-2908,68	450,00
-2897,78	448,00
-2886,89	541,00
-2876,02	538,00
-2865,17	395,00
-2854,33	472,00
-2843,50	428,00
-2832,70	504,00
-2821,90	423,00
-2811,13	532,00
-2800,37	514,00
-2789,62	276,00
-2778,89	516,00
-2768,18	432,00
-2757,48	526,00
-2746,80	467,00
-2736,13	422,00
-2725,48	505,00
-2714,84	337,00
-2704,22	496,00
-2693,61	427,00
-2683,02	553,00
-2672,45	473,00
-2661,89	485,00
-2651,34	448,00
-2640,81	464,00
-2630,30	532,00
-2619,80	450,00
-2609,31	477,00
-2598,84	405,00
-2588,39	531,00
-2577,95	411,00
-2567,52	376,00
-2557,11	400,00
-2546,71	429,00
-2536,33	567,00
-2525,97	488,00
-2515,62	497,00
-2505,28	468,00
-2494,96	438,00
-2484,65	450,00
-2474,36	671,00
-2464,08	351,00
-2453,82	536,00
-2443,57	399,00
-2433,33	391,00
-2423,11	494,00
-2412,91	486,00
-2402,72	469,00
-2392,54	453,00
-2382,38	459,00
-2372,23	605,00
-2362,09	-2522,00
-2351,97	498,00
-2341,87	413,00
-2331,78	442,00
-2321,70	522,00
-2311,64	496,00
-2301,59	448,00
-2291,55	456,00
-2281,53	534,00
-2271,53	371,00
-2261,53	509,00
-2251,55	401,00
-2241,59	463,00
-2231,64	404,00
-2221,70	448,00
-2211,78	430,00
-2201,87	563,00
-2191,97	506,00
-2182,09	375,00
-2172,22	466,00
-2162,37	444,00
-2152,53	430,00
-2142,70	461,00
-2132,89	440,00
-2123,09	495,00
-2113,30	451,00
-2103,53	492,00
-2093,77	486,00
-2084,02	520,00
-2074,29	526,00
-2064,57	446,00
-2054,86	588,00
-2045,17	468,00
-2035,49	519,00
-2025,82	408,00
-2016,17	477,00
-2006,53	412,00
-1996,91	523,00
-1987,29	437,00
-1977,69	485,00
-1968,11	444,00
-1958,53	434,00
-1948,97	400,00
-1939,42	462,00
-1929,89	460,00
-1920,37	499,00
-1910,86	388,00
-1901,36	477,00
-1891,88	489,00
-1882,41	468,00
-1872,95	479,00
-1863,51	553,00
-1854,08	529,00
-1844,66	459,00
-1835,26	532,00
-1825,86	480,00
-1816,48	406,00
-1807,11	512,00
-1797,76	453,00
-1788,42	533,00
-1779,09	428,00
-1769,77	389,00
-1760,47	525,00
-1751,17	438,00
-1741,89	484,00
-1732,63	543,00
-1723,37	599,00
-1714,13	540,00
-1704,90	444,00
-1695,68	572,00
-1686,48	380,00
-1677,29	453,00
-1668,11	633,00
-1658,94	473,00
-1649,78	424,00
-1640,64	529,00
-1631,51	462,00
-1622,39	518,00
-1613,28	427,00
-1604,19	544,00
-1595,10	482,00
-1586,03	485,00
-1576,97	455,00
-1567,93	445,00
-1558,89	488,00
-1549,87	449,00
-1540,86	426,00
-1531,86	424,00
-1522,87	437,00
-1513,90	480,00
-1504,93	514,00
-1495,98	554,00
-1487,04	500,00
-1478,12	507,00
-1469,20	447,00
-1460,30	411,00
-1451,40	562,00
-1442,52	460,00
-1433,65	590,00
-1424,80	442,00
-1415,95	409,00
-1407,12	560,00
-1398,30	450,00
-1389,48	483,00
-1380,69	406,00
-1371,90	449,00
-1363,12	552,00
-1354,36	550,00
-1345,60	440,00
-1336,86	460,00
-1328,13	514,00
-1319,41	517,00
-1310,70	464,00
-1302,01	409,00
-1293,32	342,00
-1284,65	440,00
-1275,99	521,00
-1267,33	521,00
-1258,69	539,00
-1250,06	504,00
-1241,45	389,00
-1232,84	644,00
-1224,25	514,00
-1215,66	475,00
-1207,09	551,00
-1198,53	467,00
-1189,97	466,00
-1181,43	372,00
-1172,91	507,00
-1164,39	462,00
-1155,88	459,00
-1147,38	376,00
-1138,90	458,00
-1130,43	463,00
-1121,96	511,00
-1113,51	476,00
-1105,07	454,00
-1096,64	543,00
-1088,22	449,00
-1079,81	530,00
-1071,41	501,00
-1063,02	466,00
-1054,65	542,00
-1046,28	463,00
-1037,92	505,00
-1029,58	479,00
-1021,24	557,00
-1012,92	541,00
-1004,61	431,00
-996,30	531,00
-988,01	417,00
-979,73	567,00
-971,46	521,00
-963,20	514,00
-954,95	412,00
-946,71	460,00
-938,48	493,00
-930,26	542,00
-922,06	554,00
-913,86	417,00
-905,67	401,00
-897,49	526,00
-889,33	385,00
-881,17	440,00
-873,02	522,00
-864,89	485,00
-856,76	443,00
-848,65	526,00
-840,54	522,00
-832,45	504,00
-824,36	391,00
-816,29	536,00
-808,22	494,00
-800,17	527,00
-792,12	503,00
-784,09	468,00
-776,06	441,00
-768,05	478,00
-760,04	525,00
-752,05	456,00
-744,07	469,00
-736,09	543,00
-728,13	380,00
-720,17	445,00
-712,23	501,00
-704,29	377,00
-696,37	438,00
-688,45	563,00
-680,55	398,00
-672,65	443,00
-664,77	418,00
-656,89	487,00
-649,03	456,00
-641,17	503,00
-633,32	423,00
-625,49	511,00
-617,66	460,00
-609,84	523,00
-602,03	446,00
-594,23	465,00
-586,45	477,00
-578,67	444,00
-570,90	482,00
-563,14	375,00
-555,39	565,00
-547,65	507,00
-539,91	503,00
-532,19	534,00
-524,48	449,00
-516,78	351,00
-509,08	508,00
-501,40	511,00
-493,72	458,00
-486,06	452,00
-478,40	465,00
-470,76	372,00
-463,12	573,00
-455,49	463,00
-447,87	418,00
-440,26	446,00
-432,66	351,00
-425,07	544,00
-417,49	514,00
-409,92	490,00
-402,35	468,00
-394,80	460,00
-387,25	453,00
-379,72	503,00
-372,19	537,00
-364,67	542,00
-357,17	471,00
-349,67	418,00
-342,18	401,00
-334,69	532,00
-327,22	457,00
-319,76	504,00
-312,30	501,00
-304,86	523,00
-297,42	555,00
-290,00	524,00
-282,58	514,00
-275,17	526,00
-267,77	616,00
-260,37	522,00
-252,99	552,00
-245,62	513,00
-238,25	489,00
-230,90	523,00
-223,55	544,00
-216,21	536,00
-208,88	697,00
-201,56	531,00
-194,25	604,00
-186,94	620,00
-179,65	643,00
-172,36	665,00
-165,08	694,00
-157,81	726,00
-150,55	720,00
-143,30	707,00
-136,06	744,00
-128,82	733,00
-121,60	865,00
-114,38	913,00
-107,17	1016,00
-99,97	1113,00
-92,78	1149,00
-85,60	1165,00
-78,42	1393,00
-71,25	1529,00
-64,10	1658,00
-56,95	1840,00
-49,81	2126,00
-42,67	2580,00
-35,55	3007,00
-28,43	3961,00
-21,33	6240,00
-14,23	19474,00
-7,14	57498,00
-0,05	57284,00
7,02	57012,00
14,09	57319,00
21,14	17137,00
28,19	7411,00
35,23	4898,00
42,27	3999,00
49,29	3274,00
56,31	2729,00
63,32	2560,00
70,32	2132,00
77,31	1840,00
84,29	1640,00
91,27	1625,00
98,23	1534,00
105,19	1447,00
112,14	1786,00
119,09	3232,00
126,02	5423,00
132,95	6738,00
139,87	7113,00
146,78	7515,00
153,68	7356,00
160,58	7425,00
167,46	7184,00
174,34	7360,00
181,21	7319,00
188,08	7294,00
194,93	7369,00
201,78	7474,00
208,62	7559,00
215,45	7565,00
222,27	7483,00
229,09	7561,00
235,90	7496,00
242,70	7453,00
249,49	7526,00
256,27	7485,00
263,05	7338,00
269,82	7418,00
276,58	7364,00
283,33	7359,00
290,08	7291,00
296,82	7308,00
303,55	7079,00
310,27	7163,00
316,98	7087,00
323,69	7192,00
330,39	7097,00
337,08	7142,00
343,76	7248,00
350,44	7110,00
357,11	7021,00
363,77	7156,00
370,42	7210,00
377,07	7117,00
383,71	7054,00
390,34	7201,00
396,96	7131,00
403,58	7117,00
410,19	7192,00
416,79	7248,00
423,38	7234,00
429,97	7221,00
436,55	6973,00
443,12	7008,00
449,68	6967,00
456,24	6839,00
462,79	6866,00
469,33	6834,00
475,86	6920,00
482,39	6698,00
488,91	6872,00
495,42	6662,00
501,93	6826,00
508,42	6683,00
514,91	6554,00
521,40	6681,00
527,87	6634,00
534,34	6486,00
540,80	6532,00
547,25	6508,00
553,70	6635,00
560,14	6610,00
566,57	6554,00
573,00	6620,00
579,41	6697,00
585,83	6600,00
592,23	6558,00
598,62	6511,00
605,01	6390,00
611,40	6585,00
617,77	6400,00
624,14	6456,00
630,50	6375,00
636,85	6450,00
643,20	6338,00
649,54	6256,00
655,87	6495,00
662,20	6303,00
668,52	6202,00
674,83	6249,00
681,13	6096,00
687,43	6245,00
693,72	5915,00
700,00	6042,00
706,28	6102,00
712,55	6185,00
718,81	6139,00
725,07	6180,00
731,32	6150,00
737,56	6117,00
743,79	6049,00
750,02	6250,00
756,24	6078,00
762,46	5959,00
768,67	6161,00
774,87	5905,00
781,06	6036,00
787,25	6088,00
793,43	6150,00
799,60	5986,00
805,77	6061,00
811,93	6109,00
818,08	6050,00
824,23	6035,00
830,37	5992,00
836,50	5846,00
842,63	5951,00
848,75	5828,00
854,87	5971,00
860,97	5928,00
867,07	5852,00
873,17	5790,00
879,25	5782,00
885,33	5775,00
891,41	5727,00
897,47	5856,00
903,53	5608,00
909,59	5812,00
915,63	5741,00
921,67	5674,00
927,71	5729,00
933,74	5713,00
939,76	5565,00
945,77	5600,00
951,78	5720,00
957,78	5564,00
963,78	5809,00
969,77	5712,00
975,75	5594,00
981,72	5604,00
987,69	6447,00
993,66	5680,00
999,61	5596,00
1005,56	5762,00
1011,51	5666,00
1017,44	5714,00
1023,37	5635,00
1029,30	5670,00
1035,22	5677,00
1041,13	5546,00
1047,03	5692,00
1052,93	5760,00
1058,83	5962,00
1064,71	5889,00
1070,59	5852,00
1076,47	5667,00
1082,33	5622,00
1088,20	5735,00
1094,05	5589,00
1099,90	5461,00
1105,74	5477,00
1111,58	5551,00
1117,41	5520,00
1123,23	5611,00
1129,05	5885,00
1134,86	5845,00
1140,67	5588,00
1146,47	5462,00
1152,26	5472,00
1158,05	5459,00
1163,83	5509,00
1169,60	5592,00
1175,37	5360,00
1181,13	5386,00
1186,89	5403,00
1192,64	5353,00
1198,38	5568,00
1204,12	5400,00
1209,85	5403,00
1215,58	5473,00
1221,30	5463,00
1227,02	5522,00
1232,72	5400,00
1238,43	5331,00
1244,12	5423,00
1249,81	5428,00
1255,50	5600,00
1261,17	5525,00
1266,85	5523,00
1272,51	5462,00
1278,17	5508,00
1283,83	5537,00
1289,47	5711,00
1295,12	6065,00
1300,75	5898,00
1306,38	5688,00
1312,01	5588,00
1317,63	5449,00
1323,24	5397,00
1328,85	5417,00
1334,45	5414,00
1340,04	5457,00
1345,63	5454,00
1351,22	5541,00
1356,80	5475,00
1362,37	5684,00
1367,93	5478,00
1373,49	5620,00
1379,05	5564,00
1384,60	5537,00
1390,14	5571,00
1395,68	5535,00
1401,21	5483,00
1406,74	5500,00
1412,26	5649,00
1417,77	5823,00
1423,28	5636,00
1428,78	5743,00
1434,28	6022,00
1439,77	6070,00
1445,26	6063,00
1450,74	5984,00
1456,22	5769,00
1461,68	5810,00
1467,15	5725,00
1472,61	5534,00
1478,06	5685,00
1483,51	5388,00
1488,95	5319,00
1494,38	5408,00
1499,81	5321,00
1505,24	5086,00
1510,65	5095,00
1516,07	5191,00
1521,48	5180,00
1526,88	5112,00
1532,27	5033,00
1537,67	5029,00
1543,05	5016,00
1548,43	4948,00
1553,81	5080,00
1559,18	4835,00
1564,54	4995,00
1569,90	4877,00
1575,25	4853,00
1580,60	4814,00
1585,94	4998,00
1591,28	4897,00
1596,61	4913,00
1601,93	4820,00
1607,25	4873,00
1612,57	4771,00
1617,88	4760,00
1623,18	4863,00
1628,48	4809,00
1633,77	4702,00
1639,06	4727,00
1644,34	4684,00
1649,62	4655,00
1654,89	4789,00
1660,16	4596,00
1665,42	4708,00
1670,67	4568,00
1675,92	4612,00
1681,17	4583,00
1686,41	4658,00
1691,64	4588,00
1696,87	4579,00
1702,10	4461,00
1707,32	4497,00
1712,53	4401,00
1717,74	4509,00
1722,94	4517,00
1728,14	4307,00
1733,33	4430,00
1738,52	4234,00
1743,70	4313,00
1748,88	4354,00
1754,05	4315,00
1759,22	4181,00
1764,38	4395,00
1769,53	4297,00
1774,69	4330,00
1779,83	4065,00
1784,97	4093,00
1790,11	4147,00
1795,24	4149,00
1800,36	4118,00
1805,48	4145,00
1810,60	4132,00
1815,71	4091,00
1820,82	4015,00
1825,92	4175,00
1831,01	3964,00
1836,10	4103,00
1841,19	4033,00
1846,26	4018,00
1851,34	4004,00
1856,41	4033,00
1861,47	3963,00
1866,53	4119,00
1871,59	4057,00
1876,64	3934,00
1881,68	3834,00
1886,72	3858,00
1891,76	3888,00
1896,79	3800,00
1901,81	3884,00
1906,83	3815,00
1911,85	3753,00
1916,86	3711,00
1921,86	3657,00
1926,86	3622,00
1931,86	3655,00
1936,85	3702,00
1941,83	3573,00
1946,81	3572,00
1951,79	3500,00
1956,76	3492,00
1961,72	3398,00
1966,68	3496,00
1971,64	3550,00
1976,59	3546,00
1981,54	3450,00
1986,48	3597,00
1991,42	3334,00
1996,35	3579,00
2001,27	3431,00
2006,20	3415,00
2011,11	3348,00
2016,03	3453,00
2020,93	3336,00
2025,84	3421,00
2030,73	3290,00
2035,63	3394,00
2040,52	3342,00
2045,40	3365,00
2050,28	3358,00
2055,15	3268,00
2060,02	3226,00
2064,89	3397,00
2069,75	3277,00
2074,60	3294,00
2079,46	3093,00
2084,30	3186,00
2089,14	3233,00
2093,98	3331,00
2098,81	3188,00
2103,64	3125,00
2108,46	3242,00
2113,28	3232,00
2118,09	3255,00
2122,90	3205,00
2127,70	3135,00
2132,50	3171,00
2137,30	3147,00
2142,09	3081,00
2146,87	3098,00
2151,66	3135,00
2156,43	3025,00
2161,20	3049,00
2165,97	3152,00
2170,73	2994,00
2175,49	3091,00
2180,24	3063,00
2184,99	3093,00
2189,74	2987,00
2194,48	3066,00
2199,21	2999,00
2203,94	2904,00
2208,67	2940,00
2213,39	2879,00
2218,11	2949,00
2222,82	2825,00
2227,53	2878,00
2232,23	2779,00
2236,93	2883,00
2241,63	2792,00
2246,32	2915,00
2251,00	2875,00
2255,68	2825,00
2260,36	2716,00
2265,03	2849,00
2269,70	2881,00
2274,36	2720,00
2279,02	2766,00
2283,68	2739,00
2288,33	2772,00
2292,97	2818,00
2297,61	2736,00
2302,25	2752,00
2306,88	2681,00
2311,51	2709,00
2316,14	2654,00
2320,75	2611,00
2325,37	2648,00
2329,98	2691,00
2334,59	2657,00
2339,19	2648,00
2343,79	2565,00
2348,38	2578,00
2352,97	2486,00
2357,55	2538,00
2362,13	2512,00
2366,71	2435,00
2371,28	2583,00
2375,85	2491,00
2380,41	2497,00
2384,97	2378,00
2389,52	2460,00
2394,07	2427,00
2398,62	2381,00
2403,16	2427,00
2407,70	2310,00
2412,23	2381,00
2416,76	2477,00
2421,29	2443,00
2425,81	2406,00
2430,32	2459,00
2434,84	2253,00
2439,34	2278,00
2443,85	2344,00
2448,35	2283,00
2452,84	2257,00
2457,33	2322,00
2461,82	2182,00
2466,30	2217,00
2470,78	2276,00
2475,25	2217,00
2479,72	2194,00
2484,19	2213,00
2488,65	2302,00
2493,11	2143,00
2497,56	2238,00
2502,01	2122,00
2506,46	2183,00
2510,90	2019,00
2515,34	2021,00
2519,77	2210,00
2524,20	2090,00
2528,62	2079,00
2533,04	2103,00
2537,46	2066,00
2541,87	2113,00
2546,28	2007,00
2550,68	2045,00
2555,08	1975,00
2559,48	1966,00
2563,87	1892,00
2568,26	1953,00
2572,64	1944,00
2577,02	1917,00
2581,40	1798,00
2585,77	1951,00
2590,14	1902,00
2594,50	1815,00
2598,86	1866,00
2603,22	1787,00
2607,57	1833,00
2611,92	1812,00
2616,26	1797,00
2620,60	1869,00
2624,94	1817,00
2629,27	1852,00
2633,60	1687,00
2637,92	1889,00
2642,24	1875,00
2646,56	1741,00
2650,87	1620,00
2655,18	1787,00
2659,48	1680,00
2663,78	1658,00
2668,08	1651,00
2672,37	1711,00
2676,66	1724,00
2680,95	1622,00
2685,23	1707,00
2689,50	1703,00
2693,78	1680,00
2698,05	1603,00
2702,31	1627,00
2706,57	1776,00
2710,83	1755,00
2715,08	1849,00
2719,33	1714,00
2723,58	1717,00
2727,82	1817,00
2732,06	1739,00
2736,29	1668,00
2740,53	1631,00
2744,75	1654,00
2748,97	1657,00
2753,19	1634,00
2757,41	1662,00
2761,62	1624,00
2765,83	1524,00
2770,03	1517,00
2774,23	1569,00
2778,43	1548,00
2782,62	1573,00
2786,81	1574,00
2791,00	1657,00
2795,18	1522,00
2799,35	1590,00
2803,53	1544,00
2807,70	1512,00
2811,86	1564,00
2816,03	1708,00
2820,19	1574,00
2824,34	1627,00
2828,49	1616,00
2832,64	1677,00
2836,78	1837,00
2840,92	1809,00
2845,06	1949,00
2849,19	2109,00
2853,32	2156,00
2857,45	2035,00
2861,57	2070,00
2865,69	2169,00
2869,80	2003,00
2873,91	2003,00
2878,02	2105,00
2882,12	2069,00
2886,22	2153,00
2890,32	2079,00
2894,41	2056,00
2898,50	1968,00
2902,58	1952,00
2906,67	1903,00
2910,74	1810,00
2914,82	1756,00
2918,89	1798,00
2922,96	1609,00
2927,02	1591,00
2931,08	1557,00
2935,13	1470,00
2939,19	1511,00
2943,24	1486,00
2947,28	1514,00
2951,32	1379,00
2955,36	1306,00
2959,40	1399,00
2963,43	1355,00
2967,46	1254,00
2971,48	1286,00
2975,50	1270,00
2979,52	1296,00
2983,53	1307,00
2987,54	1189,00
2991,55	1164,00
2995,55	1159,00
2999,55	1121,00
3003,54	1155,00
3007,54	1124,00
3011,53	1174,00
3015,51	1062,00
3019,49	1080,00
3023,47	1014,00
3027,45	1219,00
3031,42	1063,00
3035,39	987,00
3039,35	1095,00
3043,31	1084,00
3047,27	982,00
3051,22	983,00
3055,17	999,00
3059,12	1048,00
3063,06	989,00
3067,00	885,00
3070,94	894,00
3074,87	1088,00
3078,80	945,00
3082,73	961,00
3086,65	919,00
3090,57	995,00
3094,49	921,00
3098,40	932,00
3102,31	927,00
3106,22	980,00
3110,12	914,00
3114,02	852,00
3117,92	927,00
3121,81	902,00
3125,70	937,00
3129,58	902,00
3133,47	808,00
3137,34	917,00
3141,22	920,00
3145,09	830,00
3148,96	906,00
3152,83	927,00
3156,69	920,00
3160,55	834,00
3164,40	880,00
3168,26	864,00
3172,10	884,00
3175,95	877,00
3179,79	900,00
3183,63	933,00
3187,47	845,00
3191,30	921,00
3195,13	692,00
3198,95	757,00
3202,78	785,00
3206,60	787,00
3210,41	756,00
3214,23	759,00
3218,03	830,00
3221,84	802,00
3225,64	772,00
3229,44	764,00
3233,24	733,00
3237,03	761,00
3240,82	746,00
3244,61	737,00
3248,39	741,00
3252,17	778,00
3255,95	824,00
3259,72	680,00
3263,49	782,00
3267,26	631,00
3271,03	700,00
3274,79	736,00
3278,54	770,00
3282,30	673,00
3286,05	771,00
3289,80	754,00
3293,54	716,00
3297,29	695,00
3301,02	668,00
3304,76	761,00
3308,49	773,00
3312,22	649,00
3315,95	654,00
3319,67	699,00
3323,39	712,00
3327,10	690,00
3330,82	620,00
3334,53	746,00
3338,24	657,00
3341,94	602,00
3345,64	664,00
3349,34	658,00
3353,03	591,00
3356,72	696,00
3360,41	733,00
3364,10	581,00
3367,78	662,00
3371,46	682,00
3375,13	619,00
3378,81	700,00
3382,48	630,00
3386,14	694,00
3389,81	708,00
3393,47	689,00
3397,12	703,00
3400,78	693,00
3404,43	580,00
3408,08	566,00
3411,72	519,00
3415,36	558,00
3419,00	567,00
3422,64	580,00
3426,27	511,00
3429,90	647,00
3433,53	524,00
3437,15	580,00
3440,77	534,00
3444,39	548,00
3448,00	547,00
3451,62	528,00
3455,22	581,00
3458,83	610,00
3462,43	622,00
3466,03	555,00
3469,63	492,00
3473,22	526,00
3476,81	503,00
3480,40	581,00
3483,99	594,00
3487,57	514,00
3491,15	564,00
3494,72	597,00
3498,29	631,00
3501,86	442,00
3505,43	545,00
3508,99	508,00
3512,56	405,00
3516,11	616,00
3519,67	501,00
3523,22	570,00
3526,77	432,00
3530,32	659,00
3533,86	647,00
3537,40	585,00
3540,94	543,00
3544,47	532,00
3548,00	501,00
3551,53	545,00
3555,06	479,00
3558,58	591,00
3562,10	584,00
3565,62	449,00
3569,13	499,00
3572,64	639,00
3576,15	492,00
3579,66	411,00
3583,16	478,00
3586,66	543,00
3590,16	506,00
3593,65	512,00
3597,14	445,00
3600,63	443,00
3604,11	497,00
3607,60	531,00
3611,08	511,00
3614,55	574,00
3618,03	495,00
3621,50	425,00
3624,97	382,00
3628,43	489,00
3631,90	469,00
3635,36	384,00
3638,81	482,00
3642,27	465,00
3645,72	528,00
3649,17	330,00
3652,61	438,00
3656,06	428,00
3659,50	435,00
3662,93	509,00
3666,37	529,00
3669,80	572,00
3673,23	484,00
3676,65	405,00
3680,08	391,00
3683,50	465,00
3686,92	415,00
3690,33	476,00
3693,74	422,00
3697,15	418,00
3700,56	427,00
3703,96	430,00
3707,36	348,00
3710,76	336,00
3714,16	423,00
3717,55	441,00
3720,94	327,00
3724,33	418,00
3727,71	453,00
3731,10	397,00
3734,48	454,00
3737,85	390,00
3741,23	406,00
3744,60	428,00
3747,97	334,00
3751,33	450,00
3754,69	346,00
3758,05	376,00
3761,41	343,00
3764,77	360,00
3768,12	408,00
3771,47	319,00
3774,82	374,00
3778,16	-2,00
3781,50	6,00
3784,84	0,00
3788,18	7,00
>>>>>End Processed Spectral Data<<<<<
