SpectraSuite Data File
++++++++++++++++++++++++++++++++++++
Date: Mon Jan 05 16:29:16 ICT 2026
User: Administrator
Dark Spectrum Present: Yes
Reference Spectrum Present: No
Number of Sampled Component Spectra: 1
Spectrometers: MAYP113682
Integration Time (usec): 3000000 (MAYP113682)
Spectra Averaged: 1 (MAYP113682)
Boxcar Smoothing: 0 (MAYP113682)
Correct for Electrical Dark: No (MAYP113682)
Strobe/Lamp Enabled: No (MAYP113682)
Correct for Detector Non-linearity: No (MAYP113682)
Correct for Stray Light: No (MAYP113682)
Number of Pixels in Processed Spectrum: 2068
>>>>>Begin Processed Spectral Data<<<<<
-37534,58	24,00
-37414,56	8,00
-37295,11	5,00
-37176,24	5,00
-37057,95	483,00
-36940,22	498,00
-36823,05	533,00
-36706,45	551,00
-36590,40	599,00
-36474,90	513,00
-36359,95	628,00
-36245,55	595,00
-36131,68	552,00
-36018,35	596,00
-35905,55	567,00
-35793,29	670,00
-35681,54	575,00
-35570,32	567,00
-35459,62	650,00
-35349,43	623,00
-35239,75	615,00
-35130,58	567,00
-35021,91	582,00
-34913,74	576,00
-34806,07	623,00
-34698,89	625,00
-34592,20	571,00
-34486,00	638,00
-34380,28	686,00
-34275,04	620,00
-34170,27	484,00
-34065,98	721,00
-33962,16	693,00
-33858,81	706,00
-33755,92	564,00
-33653,49	724,00
-33551,52	681,00
-33450,01	615,00
-33348,94	720,00
-33248,33	565,00
-33148,16	649,00
-33048,43	604,00
-32949,14	735,00
-32850,29	653,00
-32751,87	627,00
-32653,89	719,00
-32556,33	693,00
-32459,20	592,00
-32362,49	628,00
-32266,19	594,00
-32170,32	604,00
-32074,86	687,00
-31979,82	686,00
-31885,18	743,00
-31790,95	690,00
-31697,12	726,00
-31603,69	635,00
-31510,67	718,00
-31418,04	777,00
-31325,80	627,00
-31233,95	576,00
-31142,49	664,00
-31051,42	656,00
-30960,73	794,00
-30870,43	787,00
-30780,50	637,00
-30690,95	733,00
-30601,77	764,00
-30512,97	677,00
-30424,53	747,00
-30336,46	639,00
-30248,76	606,00
-30161,42	725,00
-30074,44	640,00
-29987,81	735,00
-29901,55	788,00
-29815,63	665,00
-29730,07	779,00
-29644,86	730,00
-29560,00	626,00
-29475,48	746,00
-29391,30	716,00
-29307,47	742,00
-29223,97	603,00
-29140,81	748,00
-29057,99	732,00
-28975,50	592,00
-28893,34	839,00
-28811,51	697,00
-28730,00	731,00
-28648,82	703,00
-28567,97	736,00
-28487,43	661,00
-28407,21	685,00
-28327,32	580,00
-28247,73	797,00
-28168,46	624,00
-28089,50	664,00
-28010,85	624,00
-27932,51	622,00
-27854,48	686,00
-27776,75	634,00
-27699,32	684,00
-27622,19	708,00
-27545,37	710,00
-27468,84	697,00
-27392,60	685,00
-27316,66	641,00
-27241,01	665,00
-27165,66	612,00
-27090,59	587,00
-27015,81	739,00
-26941,31	712,00
-26867,10	555,00
-26793,17	846,00
-26719,52	717,00
-26646,15	619,00
-26573,06	684,00
-26500,24	615,00
-26427,70	665,00
-26355,43	602,00
-26283,43	715,00
-26211,71	704,00
-26140,25	760,00
-26069,06	682,00
-25998,13	584,00
-25927,46	626,00
-25857,06	599,00
-25786,92	705,00
-25717,04	603,00
-25647,42	685,00
-25578,05	601,00
-25508,94	585,00
-25440,09	680,00
-25371,48	715,00
-25303,13	671,00
-25235,02	681,00
-25167,17	640,00
-25099,56	621,00
-25032,19	593,00
-24965,07	666,00
-24898,20	616,00
-24831,56	508,00
-24765,17	669,00
-24699,01	589,00
-24633,10	699,00
-24567,41	703,00
-24501,97	547,00
-24436,75	646,00
-24371,77	596,00
-24307,03	616,00
-24242,51	655,00
-24178,22	616,00
-24114,16	620,00
-24050,32	658,00
-23986,71	677,00
-23923,32	711,00
-23860,16	613,00
-23797,22	634,00
-23734,50	680,00
-23672,00	614,00
-23609,71	671,00
-23547,65	600,00
-23485,80	661,00
-23424,16	530,00
-23362,74	709,00
-23301,53	716,00
-23240,54	600,00
-23179,75	535,00
-23119,17	634,00
-23058,80	642,00
-22998,64	764,00
-22938,68	562,00
-22878,93	586,00
-22819,39	576,00
-22760,04	597,00
-22700,90	633,00
-22641,96	577,00
-22583,22	631,00
-22524,68	580,00
-22466,33	632,00
-22408,19	640,00
-22350,23	625,00
-22292,48	667,00
-22234,92	735,00
-22177,55	709,00
-22120,37	805,00
-22063,38	664,00
-22006,58	612,00
-21949,98	649,00
-21893,56	550,00
-21837,33	671,00
-21781,28	647,00
-21725,42	673,00
-21669,74	704,00
-21614,25	652,00
-21558,94	631,00
-21503,81	641,00
-21448,86	678,00
-21394,10	622,00
-21339,51	589,00
-21285,10	582,00
-21230,86	599,00
-21176,81	576,00
-21122,93	649,00
-21069,22	505,00
-21015,69	610,00
-20962,33	678,00
-20909,14	634,00
-20856,13	633,00
-20803,28	671,00
-20750,61	584,00
-20698,10	490,00
-20645,76	616,00
-20593,59	719,00
-20541,59	751,00
-20489,75	702,00
-20438,07	556,00
-20386,56	631,00
-20335,22	585,00
-20284,03	593,00
-20233,01	669,00
-20182,15	553,00
-20131,45	640,00
-20080,91	616,00
-20030,52	699,00
-19980,30	648,00
-19930,23	551,00
-19880,32	704,00
-19830,56	612,00
-19780,96	570,00
-19731,52	599,00
-19682,23	616,00
-19633,09	605,00
-19584,10	570,00
-19535,26	636,00
-19486,58	645,00
-19438,04	610,00
-19389,66	671,00
-19341,42	595,00
-19293,33	566,00
-19245,39	633,00
-19197,60	704,00
-19149,95	670,00
-19102,45	611,00
-19055,09	530,00
-19007,87	639,00
-18960,80	653,00
-18913,87	566,00
-18867,09	617,00
-18820,44	733,00
-18773,94	570,00
-18727,57	661,00
-18681,35	526,00
-18635,26	722,00
-18589,31	632,00
-18543,50	634,00
-18497,83	645,00
-18452,29	675,00
-18406,89	570,00
-18361,63	711,00
-18316,50	672,00
-18271,50	652,00
-18226,63	705,00
-18181,90	642,00
-18137,30	710,00
-18092,84	704,00
-18048,50	653,00
-18004,29	604,00
-17960,22	483,00
-17916,27	618,00
-17872,45	672,00
-17828,76	741,00
-17785,20	610,00
-17741,77	563,00
-17698,46	704,00
-17655,28	572,00
-17612,22	643,00
-17569,29	630,00
-17526,48	664,00
-17483,79	701,00
-17441,23	612,00
-17398,79	575,00
-17356,48	576,00
-17314,28	777,00
-17272,21	644,00
-17230,26	641,00
-17188,42	697,00
-17146,71	707,00
-17105,12	604,00
-17063,64	600,00
-17022,28	572,00
-16981,04	528,00
-16939,92	672,00
-16898,91	761,00
-16858,02	556,00
-16817,25	575,00
-16776,59	585,00
-16736,04	630,00
-16695,61	666,00
-16655,29	598,00
-16615,09	585,00
-16574,99	616,00
-16535,01	678,00
-16495,15	667,00
-16455,39	663,00
-16415,74	595,00
-16376,21	587,00
-16336,78	598,00
-16297,46	555,00
-16258,26	559,00
-16219,16	645,00
-16180,17	589,00
-16141,28	671,00
-16102,51	616,00
-16063,84	542,00
-16025,27	687,00
-15986,82	649,00
-15948,46	654,00
-15910,22	645,00
-15872,07	672,00
-15834,04	601,00
-15796,10	625,00
-15758,27	793,00
-15720,54	568,00
-15682,91	545,00
-15645,39	740,00
-15607,97	679,00
-15570,64	605,00
-15533,42	764,00
-15496,30	611,00
-15459,28	725,00
-15422,36	615,00
-15385,54	540,00
-15348,82	704,00
-15312,19	725,00
-15275,66	580,00
-15239,23	750,00
-15202,90	552,00
-15166,67	627,00
-15130,53	684,00
-15094,48	668,00
-15058,54	592,00
-15022,68	603,00
-14986,93	581,00
-14951,26	686,00
-14915,69	756,00
-14880,22	501,00
-14844,84	599,00
-14809,55	674,00
-14774,35	651,00
-14739,25	632,00
-14704,24	641,00
-14669,32	645,00
-14634,49	581,00
-14599,75	647,00
-14565,10	611,00
-14530,55	708,00
-14496,08	672,00
-14461,70	741,00
-14427,41	670,00
-14393,21	488,00
-14359,10	616,00
-14325,07	671,00
-14291,14	559,00
-14257,29	597,00
-14223,52	596,00
-14189,85	800,00
-14156,26	618,00
-14122,76	547,00
-14089,34	548,00
-14056,01	701,00
-14022,76	570,00
-13989,60	588,00
-13956,52	740,00
-13923,53	661,00
-13890,62	569,00
-13857,79	608,00
-13825,05	574,00
-13792,39	621,00
-13759,81	701,00
-13727,31	635,00
-13694,90	695,00
-13662,57	764,00
-13630,31	699,00
-13598,14	676,00
-13566,05	573,00
-13534,05	620,00
-13502,12	603,00
-13470,27	593,00
-13438,50	717,00
-13406,80	562,00
-13375,19	589,00
-13343,66	708,00
-13312,20	683,00
-13280,83	573,00
-13249,53	679,00
-13218,30	557,00
-13187,16	655,00
-13156,09	807,00
-13125,10	670,00
-13094,18	656,00
-13063,34	630,00
-13032,58	533,00
-13001,89	665,00
-12971,28	644,00
-12940,74	585,00
-12910,27	706,00
-12879,88	631,00
-12849,57	684,00
-12819,33	674,00
-12789,16	656,00
-12759,06	608,00
-12729,04	588,00
-12699,09	1720,00
-12669,21	619,00
-12639,41	667,00
-12609,68	571,00
-12580,02	681,00
-12550,43	752,00
-12520,91	633,00
-12491,46	592,00
-12462,08	571,00
-12432,77	676,00
-12403,54	561,00
-12374,37	550,00
-12345,27	613,00
-12316,24	666,00
-12287,29	601,00
-12258,40	612,00
-12229,57	699,00
-12200,82	603,00
-12172,14	660,00
-12143,52	504,00
-12114,97	642,00
-12086,49	628,00
-12058,07	672,00
-12029,73	634,00
-12001,44	712,00
-11973,23	746,00
-11945,08	632,00
-11917,00	649,00
-11888,98	609,00
-11861,03	739,00
-11833,15	681,00
-11805,32	739,00
-11777,57	647,00
-11749,88	651,00
-11722,25	582,00
-11694,69	611,00
-11667,19	563,00
-11639,75	748,00
-11612,38	612,00
-11585,07	588,00
-11557,83	629,00
-11530,65	812,00
-11503,53	538,00
-11476,47	580,00
-11449,48	603,00
-11422,54	699,00
-11395,67	702,00
-11368,86	601,00
-11342,11	569,00
-11315,43	737,00
-11288,80	590,00
-11262,23	717,00
-11235,73	644,00
-11209,28	826,00
-11182,90	634,00
-11156,57	550,00
-11130,31	781,00
-11104,10	617,00
-11077,96	559,00
-11051,87	588,00
-11025,84	673,00
-10999,87	626,00
-10973,96	598,00
-10948,11	566,00
-10922,31	704,00
-10896,58	660,00
-10870,90	699,00
-10845,28	697,00
-10819,71	646,00
-10794,20	650,00
-10768,75	670,00
-10743,36	721,00
-10718,02	613,00
-10692,74	678,00
-10667,52	557,00
-10642,35	561,00
-10617,24	635,00
-10592,18	681,00
-10567,18	608,00
-10542,23	716,00
-10517,34	545,00
-10492,51	675,00
-10467,72	576,00
-10443,00	610,00
-10418,32	639,00
-10393,70	621,00
-10369,14	562,00
-10344,63	570,00
-10320,17	737,00
-10295,77	634,00
-10271,42	649,00
-10247,12	696,00
-10222,88	730,00
-10198,68	644,00
-10174,54	613,00
-10150,46	771,00
-10126,42	754,00
-10102,44	602,00
-10078,51	552,00
-10054,63	673,00
-10030,80	569,00
-10007,03	756,00
-9983,30	620,00
-9959,63	621,00
-9936,01	719,00
-9912,44	701,00
-9888,92	683,00
-9865,44	536,00
-9842,02	666,00
-9818,65	660,00
-9795,33	581,00
-9772,06	596,00
-9748,84	613,00
-9725,67	532,00
-9702,55	555,00
-9679,47	561,00
-9656,45	702,00
-9633,47	497,00
-9610,55	632,00
-9587,67	698,00
-9564,84	755,00
-9542,06	636,00
-9519,32	682,00
-9496,64	797,00
-9474,00	601,00
-9451,41	567,00
-9428,87	486,00
-9406,37	579,00
-9383,92	460,00
-9361,52	437,00
-9339,17	623,00
-9316,86	522,00
-9294,60	702,00
-9272,38	553,00
-9250,21	552,00
-9228,09	553,00
-9206,01	755,00
-9183,98	569,00
-9162,00	486,00
-9140,06	615,00
-9118,16	500,00
-9096,31	424,00
-9074,51	541,00
-9052,75	599,00
-9031,04	709,00
-9009,37	459,00
-8987,74	583,00
-8966,16	602,00
-8944,63	544,00
-8923,14	549,00
-8901,69	531,00
-8880,29	456,00
-8858,93	529,00
-8837,61	528,00
-8816,34	661,00
-8795,11	691,00
-8773,92	552,00
-8752,78	632,00
-8731,68	556,00
-8710,62	698,00
-8689,61	458,00
-8668,63	445,00
-8647,70	676,00
-8626,82	708,00
-8605,97	651,00
-8585,17	677,00
-8564,41	599,00
-8543,69	640,00
-8523,01	417,00
-8502,37	708,00
-8481,78	564,00
-8461,23	466,00
-8440,71	552,00
-8420,24	538,00
-8399,81	771,00
-8379,42	590,00
-8359,08	607,00
-8338,77	565,00
-8318,50	471,00
-8298,27	443,00
-8278,09	663,00
-8257,94	509,00
-8237,83	728,00
-8217,76	637,00
-8197,74	611,00
-8177,75	690,00
-8157,80	500,00
-8137,89	519,00
-8118,02	512,00
-8098,19	703,00
-8078,40	588,00
-8058,65	552,00
-8038,93	582,00
-8019,26	600,00
-7999,62	640,00
-7980,02	543,00
-7960,46	568,00
-7940,94	466,00
-7921,46	426,00
-7902,01	512,00
-7882,60	644,00
-7863,23	602,00
-7843,90	558,00
-7824,61	591,00
-7805,35	648,00
-7786,13	557,00
-7766,95	696,00
-7747,80	673,00
-7728,69	558,00
-7709,62	684,00
-7690,59	687,00
-7671,59	672,00
-7652,63	521,00
-7633,70	589,00
-7614,81	639,00
-7595,96	515,00
-7577,15	677,00
-7558,37	540,00
-7539,62	577,00
-7520,91	584,00
-7502,24	549,00
-7483,60	634,00
-7465,00	514,00
-7446,44	698,00
-7427,91	510,00
-7409,41	479,00
-7390,95	568,00
-7372,53	474,00
-7354,14	552,00
-7335,78	485,00
-7317,46	503,00
-7299,18	460,00
-7280,92	474,00
-7262,71	543,00
-7244,52	618,00
-7226,38	527,00
-7208,26	431,00
-7190,18	605,00
-7172,14	514,00
-7154,12	492,00
-7136,15	431,00
-7118,20	507,00
-7100,29	549,00
-7082,41	633,00
-7064,57	544,00
-7046,76	540,00
-7028,98	405,00
-7011,24	499,00
-6993,53	304,00
-6975,85	520,00
-6958,20	474,00
-6940,59	471,00
-6923,01	342,00
-6905,46	553,00
-6887,94	466,00
-6870,46	668,00
-6853,01	545,00
-6835,59	421,00
-6818,21	449,00
-6800,85	558,00
-6783,53	464,00
-6766,24	336,00
-6748,98	497,00
-6731,76	419,00
-6714,56	413,00
-6697,40	324,00
-6680,26	404,00
-6663,16	368,00
-6646,09	485,00
-6629,05	467,00
-6612,05	369,00
-6595,07	338,00
-6578,13	493,00
-6561,21	377,00
-6544,33	545,00
-6527,47	407,00
-6510,65	419,00
-6493,86	398,00
-6477,10	405,00
-6460,36	334,00
-6443,66	410,00
-6426,99	444,00
-6410,35	442,00
-6393,74	504,00
-6377,16	379,00
-6360,61	458,00
-6344,09	352,00
-6327,59	296,00
-6311,13	522,00
-6294,70	438,00
-6278,29	409,00
-6261,92	383,00
-6245,58	445,00
-6229,26	456,00
-6212,97	424,00
-6196,72	353,00
-6180,49	416,00
-6164,29	352,00
-6148,12	530,00
-6131,98	601,00
-6115,86	450,00
-6099,78	376,00
-6083,72	388,00
-6067,69	447,00
-6051,69	473,00
-6035,72	480,00
-6019,78	544,00
-6003,87	572,00
-5987,98	384,00
-5972,12	446,00
-5956,29	451,00
-5940,49	322,00
-5924,71	571,00
-5908,96	555,00
-5893,24	566,00
-5877,55	430,00
-5861,89	530,00
-5846,25	289,00
-5830,64	423,00
-5815,05	384,00
-5799,50	484,00
-5783,97	519,00
-5768,47	407,00
-5752,99	599,00
-5737,55	385,00
-5722,12	476,00
-5706,73	358,00
-5691,36	524,00
-5676,02	483,00
-5660,71	477,00
-5645,42	549,00
-5630,16	584,00
-5614,92	532,00
-5599,71	389,00
-5584,53	386,00
-5569,37	323,00
-5554,24	1446,00
-5539,14	411,00
-5524,06	519,00
-5509,01	458,00
-5493,98	372,00
-5478,98	432,00
-5464,00	341,00
-5449,05	453,00
-5434,13	446,00
-5419,23	461,00
-5404,36	427,00
-5389,51	435,00
-5374,69	371,00
-5359,89	452,00
-5345,12	377,00
-5330,37	557,00
-5315,65	506,00
-5300,95	574,00
-5286,28	468,00
-5271,63	388,00
-5257,01	421,00
-5242,41	440,00
-5227,84	393,00
-5213,29	388,00
-5198,76	504,00
-5184,26	519,00
-5169,79	535,00
-5155,33	449,00
-5140,91	460,00
-5126,51	413,00
-5112,13	439,00
-5097,77	413,00
-5083,44	661,00
-5069,13	536,00
-5054,85	584,00
-5040,59	542,00
-5026,36	531,00
-5012,15	595,00
-4997,96	454,00
-4983,80	509,00
-4969,66	479,00
-4955,54	549,00
-4941,44	606,00
-4927,37	455,00
-4913,33	429,00
-4899,30	413,00
-4885,30	432,00
-4871,33	449,00
-4857,37	457,00
-4843,44	566,00
-4829,53	596,00
-4815,65	630,00
-4801,79	309,00
-4787,95	565,00
-4774,13	522,00
-4760,34	558,00
-4746,56	568,00
-4732,82	455,00
-4719,09	524,00
-4705,38	514,00
-4691,70	474,00
-4678,04	568,00
-4664,41	572,00
-4650,79	699,00
-4637,20	584,00
-4623,63	519,00
-4610,08	548,00
-4596,56	443,00
-4583,05	424,00
-4569,57	461,00
-4556,11	653,00
-4542,67	579,00
-4529,25	540,00
-4515,86	549,00
-4502,49	548,00
-4489,13	513,00
-4475,80	613,00
-4462,49	454,00
-4449,21	687,00
-4435,94	532,00
-4422,70	545,00
-4409,47	490,00
-4396,27	496,00
-4383,09	481,00
-4369,93	612,00
-4356,79	509,00
-4343,67	604,00
-4330,58	681,00
-4317,50	593,00
-4304,45	533,00
-4291,41	597,00
-4278,40	569,00
-4265,41	557,00
-4252,44	628,00
-4239,49	498,00
-4226,55	488,00
-4213,65	532,00
-4200,76	662,00
-4187,89	631,00
-4175,04	536,00
-4162,21	576,00
-4149,40	672,00
-4136,61	596,00
-4123,85	611,00
-4111,10	576,00
-4098,37	700,00
-4085,66	610,00
-4072,98	605,00
-4060,31	609,00
-4047,66	688,00
-4035,04	753,00
-4022,43	567,00
-4009,84	590,00
-3997,27	504,00
-3984,72	650,00
-3972,19	711,00
-3959,69	619,00
-3947,20	605,00
-3934,73	656,00
-3922,27	627,00
-3909,84	628,00
-3897,43	709,00
-3885,04	686,00
-3872,67	633,00
-3860,31	621,00
-3847,98	764,00
-3835,66	724,00
-3823,36	663,00
-3811,09	610,00
-3798,83	643,00
-3786,59	732,00
-3774,37	727,00
-3762,17	534,00
-3749,98	650,00
-3737,82	678,00
-3725,67	755,00
-3713,55	653,00
-3701,44	682,00
-3689,35	654,00
-3677,28	821,00
-3665,22	624,00
-3653,19	624,00
-3641,17	660,00
-3629,18	678,00
-3617,20	743,00
-3605,24	677,00
-3593,30	619,00
-3581,37	723,00
-3569,47	601,00
-3557,58	687,00
-3545,71	683,00
-3533,86	718,00
-3522,02	589,00
-3510,21	745,00
-3498,41	697,00
-3486,63	591,00
-3474,87	614,00
-3463,12	622,00
-3451,40	655,00
-3439,69	658,00
-3428,00	551,00
-3416,33	702,00
-3404,67	598,00
-3393,03	627,00
-3381,41	660,00
-3369,81	750,00
-3358,22	771,00
-3346,66	755,00
-3335,10	681,00
-3323,57	569,00
-3312,06	718,00
-3300,56	748,00
-3289,08	604,00
-3277,61	616,00
-3266,16	675,00
-3254,73	605,00
-3243,32	646,00
-3231,92	531,00
-3220,55	768,00
-3209,18	795,00
-3197,84	603,00
-3186,51	637,00
-3175,20	581,00
-3163,90	663,00
-3152,63	716,00
-3141,36	577,00
-3130,12	658,00
-3118,89	652,00
-3107,68	629,00
-3096,49	643,00
-3085,31	583,00
-3074,15	687,00
-3063,00	656,00
-3051,87	640,00
-3040,76	574,00
-3029,67	723,00
-3018,59	831,00
-3007,52	725,00
-2996,48	629,00
-2985,44	679,00
-2974,43	728,00
-2963,43	596,00
-2952,45	675,00
-2941,48	738,00
-2930,53	618,00
-2919,60	600,00
-2908,68	603,00
-2897,78	642,00
-2886,89	736,00
-2876,02	691,00
-2865,17	600,00
-2854,33	670,00
-2843,50	611,00
-2832,70	660,00
-2821,90	585,00
-2811,13	645,00
-2800,37	667,00
-2789,62	567,00
-2778,89	661,00
-2768,18	698,00
-2757,48	698,00
-2746,80	693,00
-2736,13	623,00
-2725,48	763,00
-2714,84	581,00
-2704,22	669,00
-2693,61	634,00
-2683,02	654,00
-2672,45	678,00
-2661,89	622,00
-2651,34	705,00
-2640,81	620,00
-2630,30	754,00
-2619,80	677,00
-2609,31	757,00
-2598,84	556,00
-2588,39	652,00
-2577,95	597,00
-2567,52	543,00
-2557,11	619,00
-2546,71	613,00
-2536,33	711,00
-2525,97	648,00
-2515,62	746,00
-2505,28	679,00
-2494,96	572,00
-2484,65	708,00
-2474,36	863,00
-2464,08	633,00
-2453,82	792,00
-2443,57	615,00
-2433,33	604,00
-2423,11	714,00
-2412,91	620,00
-2402,72	593,00
-2392,54	643,00
-2382,38	728,00
-2372,23	721,00
-2362,09	1411,00
-2351,97	614,00
-2341,87	514,00
-2331,78	666,00
-2321,70	657,00
-2311,64	618,00
-2301,59	650,00
-2291,55	576,00
-2281,53	600,00
-2271,53	505,00
-2261,53	699,00
-2251,55	688,00
-2241,59	668,00
-2231,64	597,00
-2221,70	651,00
-2211,78	672,00
-2201,87	663,00
-2191,97	611,00
-2182,09	608,00
-2172,22	710,00
-2162,37	569,00
-2152,53	592,00
-2142,70	723,00
-2132,89	567,00
-2123,09	696,00
-2113,30	690,00
-2103,53	584,00
-2093,77	640,00
-2084,02	585,00
-2074,29	661,00
-2064,57	738,00
-2054,86	732,00
-2045,17	734,00
-2035,49	627,00
-2025,82	591,00
-2016,17	726,00
-2006,53	611,00
-1996,91	659,00
-1987,29	589,00
-1977,69	737,00
-1968,11	638,00
-1958,53	614,00
-1948,97	590,00
-1939,42	589,00
-1929,89	621,00
-1920,37	673,00
-1910,86	613,00
-1901,36	647,00
-1891,88	722,00
-1882,41	664,00
-1872,95	678,00
-1863,51	679,00
-1854,08	622,00
-1844,66	641,00
-1835,26	710,00
-1825,86	762,00
-1816,48	586,00
-1807,11	674,00
-1797,76	652,00
-1788,42	667,00
-1779,09	674,00
-1769,77	636,00
-1760,47	762,00
-1751,17	583,00
-1741,89	650,00
-1732,63	699,00
-1723,37	763,00
-1714,13	720,00
-1704,90	639,00
-1695,68	751,00
-1686,48	588,00
-1677,29	611,00
-1668,11	737,00
-1658,94	636,00
-1649,78	614,00
-1640,64	593,00
-1631,51	654,00
-1622,39	726,00
-1613,28	662,00
-1604,19	774,00
-1595,10	626,00
-1586,03	654,00
-1576,97	727,00
-1567,93	645,00
-1558,89	673,00
-1549,87	662,00
-1540,86	621,00
-1531,86	696,00
-1522,87	636,00
-1513,90	656,00
-1504,93	709,00
-1495,98	705,00
-1487,04	764,00
-1478,12	614,00
-1469,20	707,00
-1460,30	729,00
-1451,40	776,00
-1442,52	635,00
-1433,65	821,00
-1424,80	718,00
-1415,95	604,00
-1407,12	798,00
-1398,30	591,00
-1389,48	691,00
-1380,69	624,00
-1371,90	590,00
-1363,12	643,00
-1354,36	859,00
-1345,60	670,00
-1336,86	657,00
-1328,13	760,00
-1319,41	727,00
-1310,70	653,00
-1302,01	564,00
-1293,32	633,00
-1284,65	707,00
-1275,99	779,00
-1267,33	884,00
-1258,69	745,00
-1250,06	685,00
-1241,45	566,00
-1232,84	763,00
-1224,25	640,00
-1215,66	692,00
-1207,09	701,00
-1198,53	668,00
-1189,97	759,00
-1181,43	683,00
-1172,91	627,00
-1164,39	675,00
-1155,88	599,00
-1147,38	526,00
-1138,90	679,00
-1130,43	666,00
-1121,96	655,00
-1113,51	675,00
-1105,07	628,00
-1096,64	758,00
-1088,22	682,00
-1079,81	722,00
-1071,41	765,00
-1063,02	669,00
-1054,65	741,00
-1046,28	683,00
-1037,92	656,00
-1029,58	668,00
-1021,24	735,00
-1012,92	922,00
-1004,61	629,00
-996,30	851,00
-988,01	575,00
-979,73	752,00
-971,46	764,00
-963,20	603,00
-954,95	550,00
-946,71	636,00
-938,48	686,00
-930,26	718,00
-922,06	735,00
-913,86	639,00
-905,67	581,00
-897,49	659,00
-889,33	516,00
-881,17	777,00
-873,02	731,00
-864,89	593,00
-856,76	672,00
-848,65	670,00
-840,54	801,00
-832,45	648,00
-824,36	554,00
-816,29	698,00
-808,22	733,00
-800,17	678,00
-792,12	717,00
-784,09	761,00
-776,06	568,00
-768,05	714,00
-760,04	698,00
-752,05	609,00
-744,07	621,00
-736,09	704,00
-728,13	609,00
-720,17	659,00
-712,23	704,00
-704,29	619,00
-696,37	671,00
-688,45	727,00
-680,55	630,00
-672,65	633,00
-664,77	613,00
-656,89	641,00
-649,03	618,00
-641,17	730,00
-633,32	648,00
-625,49	700,00
-617,66	625,00
-609,84	675,00
-602,03	617,00
-594,23	716,00
-586,45	720,00
-578,67	641,00
-570,90	676,00
-563,14	610,00
-555,39	682,00
-547,65	725,00
-539,91	659,00
-532,19	717,00
-524,48	731,00
-516,78	645,00
-509,08	725,00
-501,40	644,00
-493,72	592,00
-486,06	610,00
-478,40	825,00
-470,76	601,00
-463,12	620,00
-455,49	633,00
-447,87	652,00
-440,26	704,00
-432,66	629,00
-425,07	624,00
-417,49	800,00
-409,92	688,00
-402,35	640,00
-394,80	548,00
-387,25	714,00
-379,72	648,00
-372,19	781,00
-364,67	729,00
-357,17	687,00
-349,67	682,00
-342,18	600,00
-334,69	675,00
-327,22	703,00
-319,76	683,00
-312,30	725,00
-304,86	694,00
-297,42	803,00
-290,00	710,00
-282,58	676,00
-275,17	721,00
-267,77	822,00
-260,37	714,00
-252,99	817,00
-245,62	752,00
-238,25	750,00
-230,90	697,00
-223,55	826,00
-216,21	774,00
-208,88	897,00
-201,56	857,00
-194,25	884,00
-186,94	818,00
-179,65	881,00
-172,36	932,00
-165,08	913,00
-157,81	1049,00
-150,55	1105,00
-143,30	1079,00
-136,06	1115,00
-128,82	1189,00
-121,60	1198,00
-114,38	1335,00
-107,17	1416,00
-99,97	1638,00
-92,78	1590,00
-85,60	1739,00
-78,42	1952,00
-71,25	2128,00
-64,10	2371,00
-56,95	2651,00
-49,81	3101,00
-42,67	3729,00
-35,55	4381,00
-28,43	5710,00
-21,33	9166,00
-14,23	28478,00
-7,14	57498,00
-0,05	57284,00
7,02	57012,00
14,09	57319,00
21,14	24867,00
28,19	10781,00
35,23	7018,00
42,27	5578,00
49,29	4593,00
56,31	4018,00
63,32	3469,00
70,32	3060,00
77,31	2639,00
84,29	2331,00
91,27	2193,00
98,23	2172,00
105,19	1969,00
112,14	2096,00
119,09	2840,00
126,02	4260,00
132,95	5030,00
139,87	5140,00
146,78	5412,00
153,68	5234,00
160,58	5208,00
167,46	5009,00
174,34	5294,00
181,21	5146,00
188,08	4979,00
194,93	5098,00
201,78	5173,00
208,62	5153,00
215,45	5209,00
222,27	5198,00
229,09	5120,00
235,90	5108,00
242,70	5157,00
249,49	5150,00
256,27	5015,00
263,05	5064,00
269,82	5196,00
276,58	5091,00
283,33	4938,00
290,08	4966,00
296,82	4923,00
303,55	4836,00
310,27	4758,00
316,98	4840,00
323,69	4837,00
330,39	4722,00
337,08	4888,00
343,76	4759,00
350,44	4832,00
357,11	4697,00
363,77	4872,00
370,42	4773,00
377,07	4752,00
383,71	4725,00
390,34	4774,00
396,96	4815,00
403,58	4803,00
410,19	4924,00
416,79	4846,00
423,38	4977,00
429,97	4695,00
436,55	4570,00
443,12	4697,00
449,68	4512,00
456,24	4356,00
462,79	4559,00
469,33	4496,00
475,86	4481,00
482,39	4487,00
488,91	4440,00
495,42	4432,00
501,93	4397,00
508,42	4370,00
514,91	4285,00
521,40	4180,00
527,87	4353,00
534,34	4280,00
540,80	4179,00
547,25	4428,00
553,70	4254,00
560,14	4245,00
566,57	4300,00
573,00	4311,00
579,41	4237,00
585,83	4276,00
592,23	4231,00
598,62	4306,00
605,01	4273,00
611,40	4193,00
617,77	4276,00
624,14	4111,00
630,50	4101,00
636,85	4138,00
643,20	4122,00
649,54	4047,00
655,87	4122,00
662,20	4090,00
668,52	4112,00
674,83	4012,00
681,13	4033,00
687,43	3998,00
693,72	3855,00
700,00	3900,00
706,28	3915,00
712,55	3984,00
718,81	4000,00
725,07	3928,00
731,32	3989,00
737,56	4019,00
743,79	3935,00
750,02	3895,00
756,24	3835,00
762,46	3808,00
768,67	4092,00
774,87	3907,00
781,06	3898,00
787,25	3943,00
793,43	3832,00
799,60	3923,00
805,77	3835,00
811,93	3899,00
818,08	3899,00
824,23	3797,00
830,37	4068,00
836,50	3745,00
842,63	3741,00
848,75	3808,00
854,87	3758,00
860,97	3800,00
867,07	3800,00
873,17	3841,00
879,25	3771,00
885,33	3798,00
891,41	3850,00
897,47	3816,00
903,53	3631,00
909,59	3764,00
915,63	3730,00
921,67	3678,00
927,71	3616,00
933,74	3740,00
939,76	3589,00
945,77	3638,00
951,78	3688,00
957,78	3544,00
963,78	3662,00
969,77	3569,00
975,75	3502,00
981,72	3575,00
987,69	4531,00
993,66	3690,00
999,61	3671,00
1005,56	3457,00
1011,51	3593,00
1017,44	3562,00
1023,37	3545,00
1029,30	3467,00
1035,22	3661,00
1041,13	3570,00
1047,03	3653,00
1052,93	3562,00
1058,83	3773,00
1064,71	3913,00
1070,59	3763,00
1076,47	3662,00
1082,33	3575,00
1088,20	3663,00
1094,05	3553,00
1099,90	3357,00
1105,74	3539,00
1111,58	3578,00
1117,41	3530,00
1123,23	3609,00
1129,05	3689,00
1134,86	3752,00
1140,67	3652,00
1146,47	3481,00
1152,26	3487,00
1158,05	3372,00
1163,83	3495,00
1169,60	3528,00
1175,37	3490,00
1181,13	3459,00
1186,89	3423,00
1192,64	3485,00
1198,38	3614,00
1204,12	3410,00
1209,85	3381,00
1215,58	3452,00
1221,30	3462,00
1227,02	3557,00
1232,72	3459,00
1238,43	3443,00
1244,12	3331,00
1249,81	3438,00
1255,50	3574,00
1261,17	3442,00
1266,85	3440,00
1272,51	3475,00
1278,17	3564,00
1283,83	3481,00
1289,47	3711,00
1295,12	3856,00
1300,75	3773,00
1306,38	3716,00
1312,01	3568,00
1317,63	3489,00
1323,24	3442,00
1328,85	3436,00
1334,45	3414,00
1340,04	3541,00
1345,63	3511,00
1351,22	3640,00
1356,80	3667,00
1362,37	3743,00
1367,93	3565,00
1373,49	3733,00
1379,05	3602,00
1384,60	3610,00
1390,14	3600,00
1395,68	3614,00
1401,21	3578,00
1406,74	3575,00
1412,26	3692,00
1417,77	3931,00
1423,28	3692,00
1428,78	3920,00
1434,28	3982,00
1439,77	3895,00
1445,26	4008,00
1450,74	4090,00
1456,22	3852,00
1461,68	3830,00
1467,15	3775,00
1472,61	3553,00
1478,06	3735,00
1483,51	3562,00
1488,95	3518,00
1494,38	3522,00
1499,81	3423,00
1505,24	3321,00
1510,65	3383,00
1516,07	3435,00
1521,48	3321,00
1526,88	3252,00
1532,27	3276,00
1537,67	3250,00
1543,05	3357,00
1548,43	3223,00
1553,81	3281,00
1559,18	3208,00
1564,54	3201,00
1569,90	3232,00
1575,25	3125,00
1580,60	3152,00
1585,94	3159,00
1591,28	3155,00
1596,61	3175,00
1601,93	3171,00
1607,25	3218,00
1612,57	3158,00
1617,88	3219,00
1623,18	3120,00
1628,48	3106,00
1633,77	3134,00
1639,06	3073,00
1644,34	3041,00
1649,62	3022,00
1654,89	3093,00
1660,16	2977,00
1665,42	3152,00
1670,67	3018,00
1675,92	2907,00
1681,17	2986,00
1686,41	3031,00
1691,64	3070,00
1696,87	2957,00
1702,10	2939,00
1707,32	2852,00
1712,53	2944,00
1717,74	3001,00
1722,94	2928,00
1728,14	2876,00
1733,33	2833,00
1738,52	2847,00
1743,70	2839,00
1748,88	2833,00
1754,05	2863,00
1759,22	2744,00
1764,38	1999,00
1769,53	2901,00
1774,69	2806,00
1779,83	2741,00
1784,97	2773,00
1790,11	2709,00
1795,24	2748,00
1800,36	2701,00
1805,48	2642,00
1810,60	2750,00
1815,71	2576,00
1820,82	2600,00
1825,92	2658,00
1831,01	2648,00
1836,10	2677,00
1841,19	2732,00
1846,26	2588,00
1851,34	2688,00
1856,41	2650,00
1861,47	2589,00
1866,53	2708,00
1871,59	2584,00
1876,64	2604,00
1881,68	2539,00
1886,72	2622,00
1891,76	2467,00
1896,79	2430,00
1901,81	2484,00
1906,83	2545,00
1911,85	2433,00
1916,86	2459,00
1921,86	2422,00
1926,86	2368,00
1931,86	2602,00
1936,85	2341,00
1941,83	2365,00
1946,81	2271,00
1951,79	2327,00
1956,76	2318,00
1961,72	2234,00
1966,68	2303,00
1971,64	2322,00
1976,59	2260,00
1981,54	2270,00
1986,48	2282,00
1991,42	2167,00
1996,35	2452,00
2001,27	2174,00
2006,20	2277,00
2011,11	2344,00
2016,03	2259,00
2020,93	2085,00
2025,84	2202,00
2030,73	2187,00
2035,63	2104,00
2040,52	2201,00
2045,40	2182,00
2050,28	2198,00
2055,15	2164,00
2060,02	2030,00
2064,89	2295,00
2069,75	2158,00
2074,60	2191,00
2079,46	2044,00
2084,30	2124,00
2089,14	2038,00
2093,98	2143,00
2098,81	2072,00
2103,64	2102,00
2108,46	2085,00
2113,28	2154,00
2118,09	2104,00
2122,90	2112,00
2127,70	2116,00
2132,50	2120,00
2137,30	1978,00
2142,09	1908,00
2146,87	1951,00
2151,66	1952,00
2156,43	1959,00
2161,20	2017,00
2165,97	2045,00
2170,73	1914,00
2175,49	2060,00
2180,24	2065,00
2184,99	2160,00
2189,74	2103,00
2194,48	1990,00
2199,21	1965,00
2203,94	1899,00
2208,67	1872,00
2213,39	1781,00
2218,11	1892,00
2222,82	1881,00
2227,53	1925,00
2232,23	1901,00
2236,93	1964,00
2241,63	1777,00
2246,32	1881,00
2251,00	1939,00
2255,68	1894,00
2260,36	1782,00
2265,03	1903,00
2269,70	1972,00
2274,36	1759,00
2279,02	1839,00
2283,68	1812,00
2288,33	1835,00
2292,97	1802,00
2297,61	1794,00
2302,25	1822,00
2306,88	1691,00
2311,51	1722,00
2316,14	1778,00
2320,75	1653,00
2325,37	1674,00
2329,98	1733,00
2334,59	1732,00
2339,19	1654,00
2343,79	1658,00
2348,38	1742,00
2352,97	1583,00
2357,55	1739,00
2362,13	1744,00
2366,71	1662,00
2371,28	1711,00
2375,85	1708,00
2380,41	1699,00
2384,97	1661,00
2389,52	1673,00
2394,07	1674,00
2398,62	1575,00
2403,16	1664,00
2407,70	1517,00
2412,23	1606,00
2416,76	1595,00
2421,29	1605,00
2425,81	1721,00
2430,32	1663,00
2434,84	1505,00
2439,34	1557,00
2443,85	1652,00
2448,35	1563,00
2452,84	1594,00
2457,33	1565,00
2461,82	1485,00
2466,30	1422,00
2470,78	1574,00
2475,25	1492,00
2479,72	1484,00
2484,19	1480,00
2488,65	1496,00
2493,11	1399,00
2497,56	1558,00
2502,01	1348,00
2506,46	1493,00
2510,90	1451,00
2515,34	1392,00
2519,77	1401,00
2524,20	1472,00
2528,62	1475,00
2533,04	1527,00
2537,46	1436,00
2541,87	1395,00
2546,28	1475,00
2550,68	1501,00
2555,08	1388,00
2559,48	1380,00
2563,87	1342,00
2568,26	1408,00
2572,64	1373,00
2577,02	1393,00
2581,40	1320,00
2585,77	1371,00
2590,14	1309,00
2594,50	1253,00
2598,86	1350,00
2603,22	1313,00
2607,57	1307,00
2611,92	1311,00
2616,26	1352,00
2620,60	1453,00
2624,94	1297,00
2629,27	1331,00
2633,60	1199,00
2637,92	1413,00
2642,24	1373,00
2646,56	1338,00
2650,87	1178,00
2655,18	1258,00
2659,48	1166,00
2663,78	1324,00
2668,08	1239,00
2672,37	1253,00
2676,66	1262,00
2680,95	1138,00
2685,23	1278,00
2689,50	1215,00
2693,78	1229,00
2698,05	1206,00
2702,31	1170,00
2706,57	1367,00
2710,83	1350,00
2715,08	1361,00
2719,33	1212,00
2723,58	1353,00
2727,82	1388,00
2732,06	1342,00
2736,29	1307,00
2740,53	1257,00
2744,75	1267,00
2748,97	1252,00
2753,19	1188,00
2757,41	1175,00
2761,62	1199,00
2765,83	1237,00
2770,03	1135,00
2774,23	1315,00
2778,43	1181,00
2782,62	1270,00
2786,81	1264,00
2791,00	1165,00
2795,18	1276,00
2799,35	1367,00
2803,53	1193,00
2807,70	1310,00
2811,86	1140,00
2816,03	1365,00
2820,19	1306,00
2824,34	1232,00
2828,49	1235,00
2832,64	1258,00
2836,78	1471,00
2840,92	1432,00
2845,06	1587,00
2849,19	1667,00
2853,32	1703,00
2857,45	1659,00
2861,57	1657,00
2865,69	1639,00
2869,80	1615,00
2873,91	1595,00
2878,02	1806,00
2882,12	1760,00
2886,22	1747,00
2890,32	1641,00
2894,41	1688,00
2898,50	1554,00
2902,58	1659,00
2906,67	1520,00
2910,74	1555,00
2914,82	1396,00
2918,89	1497,00
2922,96	1406,00
2927,02	1253,00
2931,08	1250,00
2935,13	1181,00
2939,19	1287,00
2943,24	1099,00
2947,28	1303,00
2951,32	1105,00
2955,36	1009,00
2959,40	1268,00
2963,43	1159,00
2967,46	1070,00
2971,48	1150,00
2975,50	1120,00
2979,52	1106,00
2983,53	1130,00
2987,54	1072,00
2991,55	1083,00
2995,55	1051,00
2999,55	1022,00
3003,54	951,00
3007,54	1028,00
3011,53	961,00
3015,51	997,00
3019,49	1060,00
3023,47	866,00
3027,45	1047,00
3031,42	940,00
3035,39	930,00
3039,35	956,00
3043,31	987,00
3047,27	836,00
3051,22	1006,00
3055,17	871,00
3059,12	1023,00
3063,06	951,00
3067,00	839,00
3070,94	910,00
3074,87	1039,00
3078,80	921,00
3082,73	914,00
3086,65	960,00
3090,57	927,00
3094,49	876,00
3098,40	881,00
3102,31	835,00
3106,22	980,00
3110,12	884,00
3114,02	757,00
3117,92	861,00
3121,81	880,00
3125,70	819,00
3129,58	801,00
3133,47	723,00
3137,34	965,00
3141,22	902,00
3145,09	875,00
3148,96	881,00
3152,83	904,00
3156,69	887,00
3160,55	910,00
3164,40	956,00
3168,26	880,00
3172,10	906,00
3175,95	896,00
3179,79	853,00
3183,63	867,00
3187,47	831,00
3191,30	902,00
3195,13	832,00
3198,95	745,00
3202,78	945,00
3206,60	809,00
3210,41	777,00
3214,23	778,00
3218,03	769,00
3221,84	828,00
3225,64	816,00
3229,44	789,00
3233,24	801,00
3237,03	837,00
3240,82	718,00
3244,61	754,00
3248,39	756,00
3252,17	802,00
3255,95	887,00
3259,72	787,00
3263,49	977,00
3267,26	690,00
3271,03	789,00
3274,79	727,00
3278,54	858,00
3282,30	653,00
3286,05	864,00
3289,80	819,00
3293,54	837,00
3297,29	829,00
3301,02	722,00
3304,76	733,00
3308,49	771,00
3312,22	754,00
3315,95	750,00
3319,67	713,00
3323,39	836,00
3327,10	740,00
3330,82	721,00
3334,53	783,00
3338,24	728,00
3341,94	736,00
3345,64	815,00
3349,34	749,00
3353,03	795,00
3356,72	736,00
3360,41	801,00
3364,10	659,00
3367,78	747,00
3371,46	688,00
3375,13	703,00
3378,81	883,00
3382,48	733,00
3386,14	789,00
3389,81	855,00
3393,47	729,00
3397,12	835,00
3400,78	800,00
3404,43	761,00
3408,08	714,00
3411,72	709,00
3415,36	689,00
3419,00	767,00
3422,64	732,00
3426,27	738,00
3429,90	678,00
3433,53	651,00
3437,15	658,00
3440,77	611,00
3444,39	728,00
3448,00	758,00
3451,62	698,00
3455,22	745,00
3458,83	594,00
3462,43	696,00
3466,03	788,00
3469,63	686,00
3473,22	663,00
3476,81	635,00
3480,40	743,00
3483,99	648,00
3487,57	749,00
3491,15	643,00
3494,72	727,00
3498,29	663,00
3501,86	611,00
3505,43	682,00
3508,99	570,00
3512,56	552,00
3516,11	750,00
3519,67	650,00
3523,22	696,00
3526,77	635,00
3530,32	855,00
3533,86	675,00
3537,40	789,00
3540,94	695,00
3544,47	736,00
3548,00	589,00
3551,53	660,00
3555,06	671,00
3558,58	682,00
3562,10	735,00
3565,62	603,00
3569,13	628,00
3572,64	800,00
3576,15	559,00
3579,66	602,00
3583,16	712,00
3586,66	665,00
3590,16	705,00
3593,65	583,00
3597,14	612,00
3600,63	689,00
3604,11	657,00
3607,60	716,00
3611,08	669,00
3614,55	719,00
3618,03	620,00
3621,50	569,00
3624,97	496,00
3628,43	656,00
3631,90	558,00
3635,36	548,00
3638,81	603,00
3642,27	623,00
3645,72	687,00
3649,17	602,00
3652,61	562,00
3656,06	561,00
3659,50	574,00
3662,93	643,00
3666,37	696,00
3669,80	748,00
3673,23	635,00
3676,65	594,00
3680,08	725,00
3683,50	623,00
3686,92	657,00
3690,33	594,00
3693,74	527,00
3697,15	539,00
3700,56	698,00
3703,96	669,00
3707,36	483,00
3710,76	537,00
3714,16	533,00
3717,55	614,00
3720,94	490,00
3724,33	631,00
3727,71	606,00
3731,10	592,00
3734,48	638,00
3737,85	530,00
3741,23	585,00
3744,60	576,00
3747,97	507,00
3751,33	573,00
3754,69	572,00
3758,05	599,00
3761,41	456,00
3764,77	496,00
3768,12	506,00
3771,47	526,00
3774,82	519,00
3778,16	-4,00
3781,50	8,00
3784,84	1,00
3788,18	8,00
>>>>>End Processed Spectral Data<<<<<
