SpectraSuite Data File
++++++++++++++++++++++++++++++++++++
Date: Mon Jan 05 16:24:10 ICT 2026
User: Administrator
Dark Spectrum Present: Yes
Reference Spectrum Present: No
Number of Sampled Component Spectra: 1
Spectrometers: MAYP113682
Integration Time (usec): 3000000 (MAYP113682)
Spectra Averaged: 1 (MAYP113682)
Boxcar Smoothing: 0 (MAYP113682)
Correct for Electrical Dark: No (MAYP113682)
Strobe/Lamp Enabled: No (MAYP113682)
Correct for Detector Non-linearity: No (MAYP113682)
Correct for Stray Light: No (MAYP113682)
Number of Pixels in Processed Spectrum: 2068
>>>>>Begin Processed Spectral Data<<<<<
-37534,58	11,00
-37414,56	3,00
-37295,11	-2,00
-37176,24	2,00
-37057,95	143,00
-36940,22	357,00
-36823,05	267,00
-36706,45	287,00
-36590,40	290,00
-36474,90	354,00
-36359,95	290,00
-36245,55	362,00
-36131,68	302,00
-36018,35	384,00
-35905,55	308,00
-35793,29	390,00
-35681,54	247,00
-35570,32	320,00
-35459,62	312,00
-35349,43	358,00
-35239,75	336,00
-35130,58	389,00
-35021,91	301,00
-34913,74	362,00
-34806,07	360,00
-34698,89	265,00
-34592,20	304,00
-34486,00	345,00
-34380,28	345,00
-34275,04	314,00
-34170,27	282,00
-34065,98	342,00
-33962,16	440,00
-33858,81	373,00
-33755,92	336,00
-33653,49	477,00
-33551,52	389,00
-33450,01	368,00
-33348,94	352,00
-33248,33	332,00
-33148,16	333,00
-33048,43	276,00
-32949,14	480,00
-32850,29	370,00
-32751,87	298,00
-32653,89	435,00
-32556,33	370,00
-32459,20	295,00
-32362,49	374,00
-32266,19	393,00
-32170,32	292,00
-32074,86	364,00
-31979,82	409,00
-31885,18	396,00
-31790,95	380,00
-31697,12	410,00
-31603,69	350,00
-31510,67	375,00
-31418,04	445,00
-31325,80	358,00
-31233,95	256,00
-31142,49	346,00
-31051,42	303,00
-30960,73	435,00
-30870,43	383,00
-30780,50	401,00
-30690,95	426,00
-30601,77	431,00
-30512,97	322,00
-30424,53	427,00
-30336,46	308,00
-30248,76	280,00
-30161,42	410,00
-30074,44	416,00
-29987,81	382,00
-29901,55	467,00
-29815,63	373,00
-29730,07	310,00
-29644,86	407,00
-29560,00	400,00
-29475,48	410,00
-29391,30	374,00
-29307,47	404,00
-29223,97	271,00
-29140,81	354,00
-29057,99	474,00
-28975,50	314,00
-28893,34	441,00
-28811,51	406,00
-28730,00	416,00
-28648,82	356,00
-28567,97	360,00
-28487,43	359,00
-28407,21	243,00
-28327,32	357,00
-28247,73	479,00
-28168,46	258,00
-28089,50	400,00
-28010,85	318,00
-27932,51	333,00
-27854,48	291,00
-27776,75	334,00
-27699,32	389,00
-27622,19	309,00
-27545,37	367,00
-27468,84	388,00
-27392,60	347,00
-27316,66	343,00
-27241,01	376,00
-27165,66	369,00
-27090,59	334,00
-27015,81	445,00
-26941,31	362,00
-26867,10	267,00
-26793,17	430,00
-26719,52	347,00
-26646,15	322,00
-26573,06	305,00
-26500,24	346,00
-26427,70	370,00
-26355,43	283,00
-26283,43	378,00
-26211,71	332,00
-26140,25	377,00
-26069,06	369,00
-25998,13	343,00
-25927,46	316,00
-25857,06	286,00
-25786,92	344,00
-25717,04	286,00
-25647,42	384,00
-25578,05	303,00
-25508,94	373,00
-25440,09	299,00
-25371,48	392,00
-25303,13	467,00
-25235,02	344,00
-25167,17	306,00
-25099,56	294,00
-25032,19	339,00
-24965,07	372,00
-24898,20	256,00
-24831,56	256,00
-24765,17	339,00
-24699,01	251,00
-24633,10	336,00
-24567,41	386,00
-24501,97	216,00
-24436,75	329,00
-24371,77	347,00
-24307,03	258,00
-24242,51	361,00
-24178,22	262,00
-24114,16	355,00
-24050,32	320,00
-23986,71	407,00
-23923,32	438,00
-23860,16	347,00
-23797,22	361,00
-23734,50	310,00
-23672,00	405,00
-23609,71	287,00
-23547,65	316,00
-23485,80	381,00
-23424,16	243,00
-23362,74	446,00
-23301,53	334,00
-23240,54	236,00
-23179,75	255,00
-23119,17	296,00
-23058,80	271,00
-22998,64	448,00
-22938,68	287,00
-22878,93	341,00
-22819,39	243,00
-22760,04	333,00
-22700,90	410,00
-22641,96	316,00
-22583,22	355,00
-22524,68	345,00
-22466,33	303,00
-22408,19	358,00
-22350,23	330,00
-22292,48	322,00
-22234,92	342,00
-22177,55	420,00
-22120,37	344,00
-22063,38	304,00
-22006,58	385,00
-21949,98	399,00
-21893,56	253,00
-21837,33	304,00
-21781,28	352,00
-21725,42	371,00
-21669,74	445,00
-21614,25	360,00
-21558,94	323,00
-21503,81	469,00
-21448,86	364,00
-21394,10	396,00
-21339,51	343,00
-21285,10	291,00
-21230,86	242,00
-21176,81	369,00
-21122,93	296,00
-21069,22	197,00
-21015,69	308,00
-20962,33	330,00
-20909,14	298,00
-20856,13	345,00
-20803,28	460,00
-20750,61	433,00
-20698,10	219,00
-20645,76	293,00
-20593,59	318,00
-20541,59	339,00
-20489,75	349,00
-20438,07	314,00
-20386,56	364,00
-20335,22	300,00
-20284,03	373,00
-20233,01	349,00
-20182,15	317,00
-20131,45	291,00
-20080,91	208,00
-20030,52	374,00
-19980,30	302,00
-19930,23	312,00
-19880,32	386,00
-19830,56	287,00
-19780,96	342,00
-19731,52	348,00
-19682,23	289,00
-19633,09	339,00
-19584,10	208,00
-19535,26	377,00
-19486,58	417,00
-19438,04	264,00
-19389,66	460,00
-19341,42	324,00
-19293,33	296,00
-19245,39	320,00
-19197,60	472,00
-19149,95	404,00
-19102,45	316,00
-19055,09	294,00
-19007,87	309,00
-18960,80	397,00
-18913,87	348,00
-18867,09	319,00
-18820,44	396,00
-18773,94	336,00
-18727,57	413,00
-18681,35	301,00
-18635,26	384,00
-18589,31	326,00
-18543,50	339,00
-18497,83	396,00
-18452,29	319,00
-18406,89	247,00
-18361,63	390,00
-18316,50	395,00
-18271,50	272,00
-18226,63	321,00
-18181,90	346,00
-18137,30	396,00
-18092,84	400,00
-18048,50	385,00
-18004,29	342,00
-17960,22	178,00
-17916,27	310,00
-17872,45	350,00
-17828,76	440,00
-17785,20	296,00
-17741,77	377,00
-17698,46	359,00
-17655,28	380,00
-17612,22	439,00
-17569,29	254,00
-17526,48	340,00
-17483,79	441,00
-17441,23	324,00
-17398,79	399,00
-17356,48	307,00
-17314,28	359,00
-17272,21	336,00
-17230,26	288,00
-17188,42	319,00
-17146,71	371,00
-17105,12	312,00
-17063,64	232,00
-17022,28	339,00
-16981,04	260,00
-16939,92	333,00
-16898,91	382,00
-16858,02	262,00
-16817,25	345,00
-16776,59	353,00
-16736,04	332,00
-16695,61	362,00
-16655,29	297,00
-16615,09	259,00
-16574,99	445,00
-16535,01	348,00
-16495,15	347,00
-16455,39	367,00
-16415,74	317,00
-16376,21	337,00
-16336,78	335,00
-16297,46	320,00
-16258,26	338,00
-16219,16	299,00
-16180,17	403,00
-16141,28	388,00
-16102,51	365,00
-16063,84	282,00
-16025,27	399,00
-15986,82	263,00
-15948,46	319,00
-15910,22	381,00
-15872,07	358,00
-15834,04	372,00
-15796,10	339,00
-15758,27	474,00
-15720,54	431,00
-15682,91	371,00
-15645,39	485,00
-15607,97	319,00
-15570,64	360,00
-15533,42	346,00
-15496,30	366,00
-15459,28	318,00
-15422,36	310,00
-15385,54	352,00
-15348,82	390,00
-15312,19	481,00
-15275,66	314,00
-15239,23	360,00
-15202,90	331,00
-15166,67	349,00
-15130,53	467,00
-15094,48	348,00
-15058,54	323,00
-15022,68	256,00
-14986,93	329,00
-14951,26	406,00
-14915,69	364,00
-14880,22	328,00
-14844,84	341,00
-14809,55	329,00
-14774,35	249,00
-14739,25	281,00
-14704,24	377,00
-14669,32	333,00
-14634,49	302,00
-14599,75	337,00
-14565,10	357,00
-14530,55	353,00
-14496,08	369,00
-14461,70	333,00
-14427,41	308,00
-14393,21	256,00
-14359,10	284,00
-14325,07	320,00
-14291,14	261,00
-14257,29	341,00
-14223,52	375,00
-14189,85	389,00
-14156,26	373,00
-14122,76	272,00
-14089,34	299,00
-14056,01	319,00
-14022,76	289,00
-13989,60	377,00
-13956,52	380,00
-13923,53	324,00
-13890,62	297,00
-13857,79	340,00
-13825,05	368,00
-13792,39	295,00
-13759,81	418,00
-13727,31	288,00
-13694,90	307,00
-13662,57	437,00
-13630,31	373,00
-13598,14	357,00
-13566,05	274,00
-13534,05	297,00
-13502,12	320,00
-13470,27	247,00
-13438,50	355,00
-13406,80	292,00
-13375,19	341,00
-13343,66	361,00
-13312,20	268,00
-13280,83	319,00
-13249,53	340,00
-13218,30	250,00
-13187,16	333,00
-13156,09	464,00
-13125,10	280,00
-13094,18	362,00
-13063,34	349,00
-13032,58	286,00
-13001,89	423,00
-12971,28	378,00
-12940,74	338,00
-12910,27	385,00
-12879,88	301,00
-12849,57	343,00
-12819,33	365,00
-12789,16	353,00
-12759,06	372,00
-12729,04	272,00
-12699,09	939,00
-12669,21	333,00
-12639,41	386,00
-12609,68	320,00
-12580,02	355,00
-12550,43	345,00
-12520,91	320,00
-12491,46	352,00
-12462,08	299,00
-12432,77	327,00
-12403,54	307,00
-12374,37	323,00
-12345,27	415,00
-12316,24	373,00
-12287,29	287,00
-12258,40	270,00
-12229,57	410,00
-12200,82	276,00
-12172,14	377,00
-12143,52	191,00
-12114,97	318,00
-12086,49	329,00
-12058,07	376,00
-12029,73	316,00
-12001,44	435,00
-11973,23	393,00
-11945,08	289,00
-11917,00	296,00
-11888,98	277,00
-11861,03	359,00
-11833,15	362,00
-11805,32	331,00
-11777,57	308,00
-11749,88	344,00
-11722,25	310,00
-11694,69	339,00
-11667,19	322,00
-11639,75	398,00
-11612,38	337,00
-11585,07	319,00
-11557,83	359,00
-11530,65	437,00
-11503,53	232,00
-11476,47	338,00
-11449,48	367,00
-11422,54	491,00
-11395,67	382,00
-11368,86	415,00
-11342,11	362,00
-11315,43	309,00
-11288,80	370,00
-11262,23	326,00
-11235,73	346,00
-11209,28	469,00
-11182,90	296,00
-11156,57	312,00
-11130,31	453,00
-11104,10	374,00
-11077,96	272,00
-11051,87	274,00
-11025,84	293,00
-10999,87	331,00
-10973,96	327,00
-10948,11	275,00
-10922,31	384,00
-10896,58	309,00
-10870,90	294,00
-10845,28	381,00
-10819,71	338,00
-10794,20	388,00
-10768,75	407,00
-10743,36	410,00
-10718,02	347,00
-10692,74	313,00
-10667,52	365,00
-10642,35	394,00
-10617,24	372,00
-10592,18	425,00
-10567,18	397,00
-10542,23	343,00
-10517,34	346,00
-10492,51	322,00
-10467,72	295,00
-10443,00	374,00
-10418,32	462,00
-10393,70	357,00
-10369,14	366,00
-10344,63	313,00
-10320,17	316,00
-10295,77	381,00
-10271,42	335,00
-10247,12	321,00
-10222,88	445,00
-10198,68	294,00
-10174,54	372,00
-10150,46	458,00
-10126,42	416,00
-10102,44	365,00
-10078,51	379,00
-10054,63	455,00
-10030,80	376,00
-10007,03	393,00
-9983,30	396,00
-9959,63	428,00
-9936,01	578,00
-9912,44	513,00
-9888,92	501,00
-9865,44	431,00
-9842,02	417,00
-9818,65	512,00
-9795,33	404,00
-9772,06	439,00
-9748,84	416,00
-9725,67	430,00
-9702,55	507,00
-9679,47	571,00
-9656,45	564,00
-9633,47	515,00
-9610,55	500,00
-9587,67	578,00
-9564,84	669,00
-9542,06	678,00
-9519,32	722,00
-9496,64	727,00
-9474,00	728,00
-9451,41	773,00
-9428,87	728,00
-9406,37	825,00
-9383,92	812,00
-9361,52	733,00
-9339,17	905,00
-9316,86	873,00
-9294,60	958,00
-9272,38	1056,00
-9250,21	1113,00
-9228,09	1217,00
-9206,01	1097,00
-9183,98	1083,00
-9162,00	1047,00
-9140,06	993,00
-9118,16	1013,00
-9096,31	1075,00
-9074,51	935,00
-9052,75	1197,00
-9031,04	1058,00
-9009,37	960,00
-8987,74	984,00
-8966,16	950,00
-8944,63	855,00
-8923,14	945,00
-8901,69	929,00
-8880,29	796,00
-8858,93	971,00
-8837,61	993,00
-8816,34	1003,00
-8795,11	957,00
-8773,92	908,00
-8752,78	923,00
-8731,68	646,00
-8710,62	862,00
-8689,61	807,00
-8668,63	848,00
-8647,70	966,00
-8626,82	971,00
-8605,97	880,00
-8585,17	910,00
-8564,41	865,00
-8543,69	812,00
-8523,01	712,00
-8502,37	788,00
-8481,78	802,00
-8461,23	765,00
-8440,71	835,00
-8420,24	760,00
-8399,81	1037,00
-8379,42	881,00
-8359,08	753,00
-8338,77	687,00
-8318,50	659,00
-8298,27	656,00
-8278,09	781,00
-8257,94	696,00
-8237,83	816,00
-8217,76	701,00
-8197,74	803,00
-8177,75	807,00
-8157,80	615,00
-8137,89	666,00
-8118,02	699,00
-8098,19	696,00
-8078,40	653,00
-8058,65	665,00
-8038,93	699,00
-8019,26	750,00
-7999,62	747,00
-7980,02	598,00
-7960,46	600,00
-7940,94	591,00
-7921,46	609,00
-7902,01	605,00
-7882,60	663,00
-7863,23	648,00
-7843,90	575,00
-7824,61	570,00
-7805,35	656,00
-7786,13	585,00
-7766,95	703,00
-7747,80	647,00
-7728,69	595,00
-7709,62	609,00
-7690,59	735,00
-7671,59	702,00
-7652,63	609,00
-7633,70	599,00
-7614,81	673,00
-7595,96	631,00
-7577,15	678,00
-7558,37	572,00
-7539,62	577,00
-7520,91	605,00
-7502,24	565,00
-7483,60	662,00
-7465,00	548,00
-7446,44	669,00
-7427,91	470,00
-7409,41	554,00
-7390,95	575,00
-7372,53	544,00
-7354,14	535,00
-7335,78	559,00
-7317,46	519,00
-7299,18	425,00
-7280,92	529,00
-7262,71	602,00
-7244,52	534,00
-7226,38	648,00
-7208,26	596,00
-7190,18	462,00
-7172,14	493,00
-7154,12	644,00
-7136,15	451,00
-7118,20	590,00
-7100,29	568,00
-7082,41	587,00
-7064,57	522,00
-7046,76	632,00
-7028,98	467,00
-7011,24	571,00
-6993,53	465,00
-6975,85	569,00
-6958,20	517,00
-6940,59	546,00
-6923,01	424,00
-6905,46	547,00
-6887,94	488,00
-6870,46	-1668,00
-6853,01	630,00
-6835,59	567,00
-6818,21	444,00
-6800,85	516,00
-6783,53	493,00
-6766,24	414,00
-6748,98	528,00
-6731,76	422,00
-6714,56	408,00
-6697,40	482,00
-6680,26	385,00
-6663,16	393,00
-6646,09	481,00
-6629,05	523,00
-6612,05	496,00
-6595,07	456,00
-6578,13	446,00
-6561,21	439,00
-6544,33	571,00
-6527,47	317,00
-6510,65	458,00
-6493,86	336,00
-6477,10	438,00
-6460,36	485,00
-6443,66	464,00
-6426,99	433,00
-6410,35	421,00
-6393,74	511,00
-6377,16	319,00
-6360,61	456,00
-6344,09	338,00
-6327,59	452,00
-6311,13	569,00
-6294,70	422,00
-6278,29	419,00
-6261,92	452,00
-6245,58	424,00
-6229,26	561,00
-6212,97	368,00
-6196,72	356,00
-6180,49	536,00
-6164,29	410,00
-6148,12	434,00
-6131,98	513,00
-6115,86	461,00
-6099,78	526,00
-6083,72	470,00
-6067,69	380,00
-6051,69	393,00
-6035,72	444,00
-6019,78	375,00
-6003,87	408,00
-5987,98	380,00
-5972,12	357,00
-5956,29	346,00
-5940,49	301,00
-5924,71	487,00
-5908,96	402,00
-5893,24	357,00
-5877,55	423,00
-5861,89	471,00
-5846,25	306,00
-5830,64	465,00
-5815,05	374,00
-5799,50	325,00
-5783,97	395,00
-5768,47	342,00
-5752,99	531,00
-5737,55	412,00
-5722,12	430,00
-5706,73	457,00
-5691,36	460,00
-5676,02	407,00
-5660,71	371,00
-5645,42	400,00
-5630,16	427,00
-5614,92	367,00
-5599,71	383,00
-5584,53	465,00
-5569,37	418,00
-5554,24	1232,00
-5539,14	385,00
-5524,06	350,00
-5509,01	388,00
-5493,98	349,00
-5478,98	324,00
-5464,00	347,00
-5449,05	349,00
-5434,13	413,00
-5419,23	341,00
-5404,36	343,00
-5389,51	369,00
-5374,69	394,00
-5359,89	373,00
-5345,12	447,00
-5330,37	441,00
-5315,65	324,00
-5300,95	379,00
-5286,28	435,00
-5271,63	245,00
-5257,01	421,00
-5242,41	493,00
-5227,84	301,00
-5213,29	444,00
-5198,76	372,00
-5184,26	432,00
-5169,79	284,00
-5155,33	428,00
-5140,91	390,00
-5126,51	376,00
-5112,13	385,00
-5097,77	381,00
-5083,44	405,00
-5069,13	327,00
-5054,85	402,00
-5040,59	426,00
-5026,36	441,00
-5012,15	495,00
-4997,96	448,00
-4983,80	458,00
-4969,66	327,00
-4955,54	322,00
-4941,44	349,00
-4927,37	344,00
-4913,33	440,00
-4899,30	366,00
-4885,30	376,00
-4871,33	324,00
-4857,37	278,00
-4843,44	291,00
-4829,53	423,00
-4815,65	419,00
-4801,79	292,00
-4787,95	459,00
-4774,13	415,00
-4760,34	303,00
-4746,56	434,00
-4732,82	415,00
-4719,09	330,00
-4705,38	430,00
-4691,70	373,00
-4678,04	504,00
-4664,41	429,00
-4650,79	318,00
-4637,20	355,00
-4623,63	312,00
-4610,08	467,00
-4596,56	363,00
-4583,05	308,00
-4569,57	415,00
-4556,11	420,00
-4542,67	350,00
-4529,25	282,00
-4515,86	277,00
-4502,49	466,00
-4489,13	343,00
-4475,80	449,00
-4462,49	319,00
-4449,21	416,00
-4435,94	302,00
-4422,70	266,00
-4409,47	315,00
-4396,27	446,00
-4383,09	265,00
-4369,93	354,00
-4356,79	295,00
-4343,67	356,00
-4330,58	405,00
-4317,50	407,00
-4304,45	384,00
-4291,41	392,00
-4278,40	291,00
-4265,41	327,00
-4252,44	310,00
-4239,49	273,00
-4226,55	308,00
-4213,65	282,00
-4200,76	505,00
-4187,89	404,00
-4175,04	302,00
-4162,21	240,00
-4149,40	370,00
-4136,61	354,00
-4123,85	356,00
-4111,10	330,00
-4098,37	389,00
-4085,66	317,00
-4072,98	397,00
-4060,31	293,00
-4047,66	447,00
-4035,04	477,00
-4022,43	284,00
-4009,84	301,00
-3997,27	252,00
-3984,72	391,00
-3972,19	354,00
-3959,69	398,00
-3947,20	362,00
-3934,73	312,00
-3922,27	336,00
-3909,84	354,00
-3897,43	424,00
-3885,04	385,00
-3872,67	347,00
-3860,31	359,00
-3847,98	448,00
-3835,66	319,00
-3823,36	299,00
-3811,09	398,00
-3798,83	333,00
-3786,59	376,00
-3774,37	399,00
-3762,17	289,00
-3749,98	371,00
-3737,82	379,00
-3725,67	425,00
-3713,55	319,00
-3701,44	439,00
-3689,35	480,00
-3677,28	403,00
-3665,22	351,00
-3653,19	303,00
-3641,17	328,00
-3629,18	381,00
-3617,20	330,00
-3605,24	309,00
-3593,30	363,00
-3581,37	395,00
-3569,47	413,00
-3557,58	335,00
-3545,71	340,00
-3533,86	356,00
-3522,02	336,00
-3510,21	319,00
-3498,41	336,00
-3486,63	362,00
-3474,87	281,00
-3463,12	281,00
-3451,40	312,00
-3439,69	369,00
-3428,00	288,00
-3416,33	380,00
-3404,67	309,00
-3393,03	288,00
-3381,41	385,00
-3369,81	385,00
-3358,22	414,00
-3346,66	439,00
-3335,10	401,00
-3323,57	311,00
-3312,06	419,00
-3300,56	466,00
-3289,08	364,00
-3277,61	327,00
-3266,16	335,00
-3254,73	360,00
-3243,32	301,00
-3231,92	334,00
-3220,55	409,00
-3209,18	477,00
-3197,84	271,00
-3186,51	319,00
-3175,20	273,00
-3163,90	301,00
-3152,63	364,00
-3141,36	299,00
-3130,12	400,00
-3118,89	446,00
-3107,68	353,00
-3096,49	360,00
-3085,31	290,00
-3074,15	410,00
-3063,00	340,00
-3051,87	308,00
-3040,76	241,00
-3029,67	473,00
-3018,59	406,00
-3007,52	516,00
-2996,48	283,00
-2985,44	382,00
-2974,43	441,00
-2963,43	315,00
-2952,45	410,00
-2941,48	375,00
-2930,53	373,00
-2919,60	283,00
-2908,68	298,00
-2897,78	388,00
-2886,89	376,00
-2876,02	457,00
-2865,17	361,00
-2854,33	335,00
-2843,50	292,00
-2832,70	322,00
-2821,90	279,00
-2811,13	431,00
-2800,37	413,00
-2789,62	270,00
-2778,89	363,00
-2768,18	377,00
-2757,48	354,00
-2746,80	439,00
-2736,13	322,00
-2725,48	389,00
-2714,84	272,00
-2704,22	397,00
-2693,61	384,00
-2683,02	385,00
-2672,45	365,00
-2661,89	371,00
-2651,34	344,00
-2640,81	343,00
-2630,30	402,00
-2619,80	358,00
-2609,31	333,00
-2598,84	307,00
-2588,39	363,00
-2577,95	355,00
-2567,52	341,00
-2557,11	291,00
-2546,71	391,00
-2536,33	381,00
-2525,97	399,00
-2515,62	364,00
-2505,28	344,00
-2494,96	373,00
-2484,65	355,00
-2474,36	519,00
-2464,08	262,00
-2453,82	416,00
-2443,57	284,00
-2433,33	335,00
-2423,11	362,00
-2412,91	386,00
-2402,72	293,00
-2392,54	355,00
-2382,38	418,00
-2372,23	432,00
-2362,09	-2768,00
-2351,97	400,00
-2341,87	302,00
-2331,78	393,00
-2321,70	308,00
-2311,64	385,00
-2301,59	424,00
-2291,55	352,00
-2281,53	401,00
-2271,53	315,00
-2261,53	379,00
-2251,55	401,00
-2241,59	333,00
-2231,64	370,00
-2221,70	259,00
-2211,78	319,00
-2201,87	331,00
-2191,97	276,00
-2182,09	356,00
-2172,22	361,00
-2162,37	309,00
-2152,53	293,00
-2142,70	387,00
-2132,89	362,00
-2123,09	443,00
-2113,30	313,00
-2103,53	250,00
-2093,77	421,00
-2084,02	353,00
-2074,29	409,00
-2064,57	398,00
-2054,86	373,00
-2045,17	442,00
-2035,49	381,00
-2025,82	331,00
-2016,17	384,00
-2006,53	343,00
-1996,91	405,00
-1987,29	284,00
-1977,69	383,00
-1968,11	292,00
-1958,53	332,00
-1948,97	322,00
-1939,42	365,00
-1929,89	387,00
-1920,37	371,00
-1910,86	289,00
-1901,36	394,00
-1891,88	425,00
-1882,41	309,00
-1872,95	395,00
-1863,51	384,00
-1854,08	338,00
-1844,66	417,00
-1835,26	415,00
-1825,86	375,00
-1816,48	367,00
-1807,11	422,00
-1797,76	318,00
-1788,42	394,00
-1779,09	323,00
-1769,77	353,00
-1760,47	390,00
-1751,17	344,00
-1741,89	343,00
-1732,63	330,00
-1723,37	463,00
-1714,13	411,00
-1704,90	338,00
-1695,68	417,00
-1686,48	259,00
-1677,29	249,00
-1668,11	452,00
-1658,94	273,00
-1649,78	273,00
-1640,64	424,00
-1631,51	366,00
-1622,39	401,00
-1613,28	424,00
-1604,19	418,00
-1595,10	356,00
-1586,03	363,00
-1576,97	407,00
-1567,93	342,00
-1558,89	392,00
-1549,87	465,00
-1540,86	338,00
-1531,86	306,00
-1522,87	277,00
-1513,90	426,00
-1504,93	468,00
-1495,98	383,00
-1487,04	409,00
-1478,12	311,00
-1469,20	344,00
-1460,30	375,00
-1451,40	408,00
-1442,52	395,00
-1433,65	472,00
-1424,80	361,00
-1415,95	305,00
-1407,12	410,00
-1398,30	354,00
-1389,48	393,00
-1380,69	211,00
-1371,90	306,00
-1363,12	467,00
-1354,36	422,00
-1345,60	384,00
-1336,86	340,00
-1328,13	474,00
-1319,41	361,00
-1310,70	379,00
-1302,01	305,00
-1293,32	303,00
-1284,65	358,00
-1275,99	355,00
-1267,33	454,00
-1258,69	407,00
-1250,06	358,00
-1241,45	313,00
-1232,84	521,00
-1224,25	306,00
-1215,66	331,00
-1207,09	392,00
-1198,53	415,00
-1189,97	375,00
-1181,43	292,00
-1172,91	453,00
-1164,39	382,00
-1155,88	382,00
-1147,38	291,00
-1138,90	360,00
-1130,43	312,00
-1121,96	394,00
-1113,51	374,00
-1105,07	382,00
-1096,64	400,00
-1088,22	348,00
-1079,81	373,00
-1071,41	419,00
-1063,02	327,00
-1054,65	369,00
-1046,28	368,00
-1037,92	352,00
-1029,58	367,00
-1021,24	428,00
-1012,92	468,00
-1004,61	371,00
-996,30	477,00
-988,01	295,00
-979,73	331,00
-971,46	426,00
-963,20	326,00
-954,95	275,00
-946,71	412,00
-938,48	373,00
-930,26	397,00
-922,06	356,00
-913,86	288,00
-905,67	309,00
-897,49	362,00
-889,33	279,00
-881,17	427,00
-873,02	389,00
-864,89	218,00
-856,76	319,00
-848,65	388,00
-840,54	438,00
-832,45	366,00
-824,36	336,00
-816,29	410,00
-808,22	382,00
-800,17	409,00
-792,12	389,00
-784,09	379,00
-776,06	265,00
-768,05	396,00
-760,04	401,00
-752,05	394,00
-744,07	342,00
-736,09	453,00
-728,13	361,00
-720,17	375,00
-712,23	379,00
-704,29	268,00
-696,37	359,00
-688,45	438,00
-680,55	352,00
-672,65	346,00
-664,77	305,00
-656,89	358,00
-649,03	314,00
-641,17	402,00
-633,32	378,00
-625,49	401,00
-617,66	332,00
-609,84	447,00
-602,03	229,00
-594,23	423,00
-586,45	351,00
-578,67	422,00
-570,90	419,00
-563,14	374,00
-555,39	431,00
-547,65	393,00
-539,91	393,00
-532,19	441,00
-524,48	399,00
-516,78	293,00
-509,08	401,00
-501,40	357,00
-493,72	389,00
-486,06	331,00
-478,40	345,00
-470,76	352,00
-463,12	468,00
-455,49	327,00
-447,87	421,00
-440,26	396,00
-432,66	367,00
-425,07	451,00
-417,49	345,00
-409,92	277,00
-402,35	331,00
-394,80	392,00
-387,25	378,00
-379,72	412,00
-372,19	469,00
-364,67	462,00
-357,17	376,00
-349,67	439,00
-342,18	368,00
-334,69	428,00
-327,22	399,00
-319,76	436,00
-312,30	359,00
-304,86	403,00
-297,42	494,00
-290,00	347,00
-282,58	428,00
-275,17	438,00
-267,77	497,00
-260,37	390,00
-252,99	538,00
-245,62	428,00
-238,25	428,00
-230,90	416,00
-223,55	513,00
-216,21	517,00
-208,88	706,00
-201,56	484,00
-194,25	573,00
-186,94	655,00
-179,65	603,00
-172,36	639,00
-165,08	693,00
-157,81	720,00
-150,55	736,00
-143,30	729,00
-136,06	827,00
-128,82	852,00
-121,60	889,00
-114,38	977,00
-107,17	1123,00
-99,97	1205,00
-92,78	1320,00
-85,60	1477,00
-78,42	1542,00
-71,25	1817,00
-64,10	1974,00
-56,95	2323,00
-49,81	2639,00
-42,67	3309,00
-35,55	3988,00
-28,43	5158,00
-21,33	8266,00
-14,23	26112,00
-7,14	57498,00
-0,05	57284,00
7,02	57012,00
14,09	57319,00
21,14	24048,00
28,19	10174,00
35,23	6494,00
42,27	5136,00
49,29	4228,00
56,31	3625,00
63,32	3152,00
70,32	2696,00
77,31	2420,00
84,29	2120,00
91,27	2002,00
98,23	1910,00
105,19	1880,00
112,14	2334,00
119,09	4289,00
126,02	7709,00
132,95	9727,00
139,87	10487,00
146,78	10826,00
153,68	10668,00
160,58	10802,00
167,46	10697,00
174,34	10900,00
181,21	10823,00
188,08	10725,00
194,93	10737,00
201,78	10733,00
208,62	10925,00
215,45	10994,00
222,27	11146,00
229,09	10965,00
235,90	10992,00
242,70	10949,00
249,49	11109,00
256,27	11013,00
263,05	10886,00
269,82	10988,00
276,58	10965,00
283,33	10821,00
290,08	10742,00
296,82	10790,00
303,55	10635,00
310,27	10598,00
316,98	10594,00
323,69	10591,00
330,39	10481,00
337,08	10580,00
343,76	10509,00
350,44	10677,00
357,11	10459,00
363,77	10606,00
370,42	10600,00
377,07	10494,00
383,71	10566,00
390,34	10608,00
396,96	10711,00
403,58	10801,00
410,19	10859,00
416,79	10771,00
423,38	10936,00
429,97	10698,00
436,55	10454,00
443,12	10372,00
449,68	10416,00
456,24	10255,00
462,79	10319,00
469,33	10239,00
475,86	10175,00
482,39	10175,00
488,91	10148,00
495,42	10207,00
501,93	10080,00
508,42	9939,00
514,91	9969,00
521,40	10120,00
527,87	9864,00
534,34	9832,00
540,80	9980,00
547,25	9913,00
553,70	9938,00
560,14	9951,00
566,57	9981,00
573,00	9950,00
579,41	9916,00
585,83	9836,00
592,23	9875,00
598,62	9804,00
605,01	9816,00
611,40	9741,00
617,77	9887,00
624,14	9723,00
630,50	9603,00
636,85	9539,00
643,20	9694,00
649,54	9466,00
655,87	9515,00
662,20	9479,00
668,52	9527,00
674,83	9476,00
681,13	9326,00
687,43	9291,00
693,72	9215,00
700,00	9215,00
706,28	9232,00
712,55	9202,00
718,81	9229,00
725,07	9288,00
731,32	9171,00
737,56	9072,00
743,79	9316,00
750,02	9163,00
756,24	9096,00
762,46	9114,00
768,67	9197,00
774,87	9080,00
781,06	9117,00
787,25	9131,00
793,43	9172,00
799,60	9126,00
805,77	9147,00
811,93	9053,00
818,08	9119,00
824,23	9123,00
830,37	9191,00
836,50	8991,00
842,63	8803,00
848,75	8925,00
854,87	8929,00
860,97	8895,00
867,07	8853,00
873,17	8850,00
879,25	8772,00
885,33	8683,00
891,41	8655,00
897,47	8646,00
903,53	8519,00
909,59	8688,00
915,63	8517,00
921,67	8427,00
927,71	8458,00
933,74	8512,00
939,76	8404,00
945,77	8440,00
951,78	8588,00
957,78	8456,00
963,78	8413,00
969,77	8546,00
975,75	8348,00
981,72	8527,00
987,69	9061,00
993,66	8515,00
999,61	8470,00
1005,56	8560,00
1011,51	8540,00
1017,44	8427,00
1023,37	8379,00
1029,30	8486,00
1035,22	8424,00
1041,13	8477,00
1047,03	8499,00
1052,93	8498,00
1058,83	8737,00
1064,71	8825,00
1070,59	8732,00
1076,47	8535,00
1082,33	8413,00
1088,20	8328,00
1094,05	8268,00
1099,90	8169,00
1105,74	8309,00
1111,58	8164,00
1117,41	8163,00
1123,23	8373,00
1129,05	8698,00
1134,86	8561,00
1140,67	8358,00
1146,47	8290,00
1152,26	8255,00
1158,05	8081,00
1163,83	8153,00
1169,60	8167,00
1175,37	8280,00
1181,13	8271,00
1186,89	8046,00
1192,64	7955,00
1198,38	8199,00
1204,12	8101,00
1209,85	8022,00
1215,58	8210,00
1221,30	8101,00
1227,02	8235,00
1232,72	8085,00
1238,43	8053,00
1244,12	8093,00
1249,81	8144,00
1255,50	8141,00
1261,17	8092,00
1266,85	8151,00
1272,51	8171,00
1278,17	8272,00
1283,83	8151,00
1289,47	8490,00
1295,12	8671,00
1300,75	8623,00
1306,38	8485,00
1312,01	8105,00
1317,63	8003,00
1323,24	7978,00
1328,85	8066,00
1334,45	7890,00
1340,04	7934,00
1345,63	8067,00
1351,22	8020,00
1356,80	8022,00
1362,37	8132,00
1367,93	8179,00
1373,49	8151,00
1379,05	8099,00
1384,60	8065,00
1390,14	8151,00
1395,68	8003,00
1401,21	8032,00
1406,74	7992,00
1412,26	8185,00
1417,77	8422,00
1423,28	8209,00
1428,78	8317,00
1434,28	8623,00
1439,77	8668,00
1445,26	8675,00
1450,74	8621,00
1456,22	8482,00
1461,68	8356,00
1467,15	8247,00
1472,61	8106,00
1478,06	7947,00
1483,51	7865,00
1488,95	7869,00
1494,38	7800,00
1499,81	7665,00
1505,24	7618,00
1510,65	7642,00
1516,07	7544,00
1521,48	7495,00
1526,88	7405,00
1532,27	7337,00
1537,67	7440,00
1543,05	7376,00
1548,43	7371,00
1553,81	7405,00
1559,18	7222,00
1564,54	7305,00
1569,90	7180,00
1575,25	7155,00
1580,60	7000,00
1585,94	7196,00
1591,28	7189,00
1596,61	7171,00
1601,93	7139,00
1607,25	7149,00
1612,57	7112,00
1617,88	7040,00
1623,18	6970,00
1628,48	6949,00
1633,77	6803,00
1639,06	7012,00
1644,34	6968,00
1649,62	6800,00
1654,89	6732,00
1660,16	6685,00
1665,42	6788,00
1670,67	6752,00
1675,92	6576,00
1681,17	6588,00
1686,41	6607,00
1691,64	6666,00
1696,87	6526,00
1702,10	6589,00
1707,32	6551,00
1712,53	6462,00
1717,74	6460,00
1722,94	6467,00
1728,14	6381,00
1733,33	6317,00
1738,52	6274,00
1743,70	6238,00
1748,88	6201,00
1754,05	6292,00
1759,22	6144,00
1764,38	6106,00
1769,53	6089,00
1774,69	6144,00
1779,83	5934,00
1784,97	6004,00
1790,11	5912,00
1795,24	5755,00
1800,36	5957,00
1805,48	5874,00
1810,60	6057,00
1815,71	5857,00
1820,82	5767,00
1825,92	5831,00
1831,01	5799,00
1836,10	5884,00
1841,19	5796,00
1846,26	5764,00
1851,34	5705,00
1856,41	5692,00
1861,47	5680,00
1866,53	5831,00
1871,59	5703,00
1876,64	5756,00
1881,68	5596,00
1886,72	5613,00
1891,76	5510,00
1896,79	5499,00
1901,81	5309,00
1906,83	5495,00
1911,85	5389,00
1916,86	5340,00
1921,86	5115,00
1926,86	5248,00
1931,86	5213,00
1936,85	5193,00
1941,83	4948,00
1946,81	5139,00
1951,79	4909,00
1956,76	4980,00
1961,72	4980,00
1966,68	5094,00
1971,64	5005,00
1976,59	4993,00
1981,54	4915,00
1986,48	4904,00
1991,42	4763,00
1996,35	5003,00
2001,27	4814,00
2006,20	4737,00
2011,11	4814,00
2016,03	4778,00
2020,93	4730,00
2025,84	4690,00
2030,73	4690,00
2035,63	4547,00
2040,52	4663,00
2045,40	4620,00
2050,28	4544,00
2055,15	4609,00
2060,02	4517,00
2064,89	4598,00
2069,75	4486,00
2074,60	4527,00
2079,46	4450,00
2084,30	4444,00
2089,14	4395,00
2093,98	4505,00
2098,81	4487,00
2103,64	4476,00
2108,46	4441,00
2113,28	4435,00
2118,09	4457,00
2122,90	4483,00
2127,70	4417,00
2132,50	4271,00
2137,30	4290,00
2142,09	4214,00
2146,87	4217,00
2151,66	4243,00
2156,43	4133,00
2161,20	4158,00
2165,97	4172,00
2170,73	4136,00
2175,49	4258,00
2180,24	4185,00
2184,99	4188,00
2189,74	4016,00
2194,48	4096,00
2199,21	4054,00
2203,94	4030,00
2208,67	3874,00
2213,39	3828,00
2218,11	4013,00
2222,82	3903,00
2227,53	3868,00
2232,23	3886,00
2236,93	3937,00
2241,63	3759,00
2246,32	3868,00
2251,00	3835,00
2255,68	3738,00
2260,36	3637,00
2265,03	3807,00
2269,70	3866,00
2274,36	3637,00
2279,02	3699,00
2283,68	3594,00
2288,33	3660,00
2292,97	3624,00
2297,61	3663,00
2302,25	3672,00
2306,88	3542,00
2311,51	3603,00
2316,14	3557,00
2320,75	3483,00
2325,37	3468,00
2329,98	3554,00
2334,59	3516,00
2339,19	3389,00
2343,79	3315,00
2348,38	3364,00
2352,97	3351,00
2357,55	3219,00
2362,13	3245,00
2366,71	3257,00
2371,28	3298,00
2375,85	3155,00
2380,41	3179,00
2384,97	3140,00
2389,52	3165,00
2394,07	3212,00
2398,62	3061,00
2403,16	3241,00
2407,70	3049,00
2412,23	3034,00
2416,76	3127,00
2421,29	3205,00
2425,81	3136,00
2430,32	3055,00
2434,84	2917,00
2439,34	2915,00
2443,85	3082,00
2448,35	2839,00
2452,84	2862,00
2457,33	2931,00
2461,82	2815,00
2466,30	2848,00
2470,78	2877,00
2475,25	2764,00
2479,72	2781,00
2484,19	2907,00
2488,65	2821,00
2493,11	2672,00
2497,56	2804,00
2502,01	2604,00
2506,46	2723,00
2510,90	2687,00
2515,34	2600,00
2519,77	2687,00
2524,20	2677,00
2528,62	2671,00
2533,04	2771,00
2537,46	2607,00
2541,87	2668,00
2546,28	2578,00
2550,68	2634,00
2555,08	2552,00
2559,48	2543,00
2563,87	2311,00
2568,26	2396,00
2572,64	2425,00
2577,02	2442,00
2581,40	2349,00
2585,77	2418,00
2590,14	2377,00
2594,50	2301,00
2598,86	2328,00
2603,22	2291,00
2607,57	2154,00
2611,92	2206,00
2616,26	2276,00
2620,60	2371,00
2624,94	2272,00
2629,27	2230,00
2633,60	2114,00
2637,92	2288,00
2642,24	2209,00
2646,56	2110,00
2650,87	2104,00
2655,18	2147,00
2659,48	2092,00
2663,78	2029,00
2668,08	2121,00
2672,37	2187,00
2676,66	2032,00
2680,95	2016,00
2685,23	2090,00
2689,50	2041,00
2693,78	2039,00
2698,05	1956,00
2702,31	2052,00
2706,57	2018,00
2710,83	2089,00
2715,08	2105,00
2719,33	2067,00
2723,58	2113,00
2727,82	2088,00
2732,06	2064,00
2736,29	2105,00
2740,53	2043,00
2744,75	1973,00
2748,97	1994,00
2753,19	1977,00
2757,41	1987,00
2761,62	1923,00
2765,83	1949,00
2770,03	1914,00
2774,23	1995,00
2778,43	1879,00
2782,62	1882,00
2786,81	1866,00
2791,00	1950,00
2795,18	1876,00
2799,35	1955,00
2803,53	1930,00
2807,70	1817,00
2811,86	1900,00
2816,03	1891,00
2820,19	1891,00
2824,34	1964,00
2828,49	2002,00
2832,64	1963,00
2836,78	2152,00
2840,92	2228,00
2845,06	2414,00
2849,19	2493,00
2853,32	2553,00
2857,45	2585,00
2861,57	2594,00
2865,69	2554,00
2869,80	2445,00
2873,91	2492,00
2878,02	2608,00
2882,12	2537,00
2886,22	2640,00
2890,32	2566,00
2894,41	2474,00
2898,50	2366,00
2902,58	2323,00
2906,67	2304,00
2910,74	2151,00
2914,82	2040,00
2918,89	2164,00
2922,96	1882,00
2927,02	1883,00
2931,08	1780,00
2935,13	1747,00
2939,19	1831,00
2943,24	1679,00
2947,28	1815,00
2951,32	1596,00
2955,36	1553,00
2959,40	1593,00
2963,43	1505,00
2967,46	1489,00
2971,48	1541,00
2975,50	1388,00
2979,52	1416,00
2983,53	1466,00
2987,54	1328,00
2991,55	1317,00
2995,55	1378,00
2999,55	1274,00
3003,54	1281,00
3007,54	1283,00
3011,53	1236,00
3015,51	1228,00
3019,49	1258,00
3023,47	1187,00
3027,45	1297,00
3031,42	1151,00
3035,39	1126,00
3039,35	1088,00
3043,31	1219,00
3047,27	1194,00
3051,22	1182,00
3055,17	1079,00
3059,12	1083,00
3063,06	1186,00
3067,00	1060,00
3070,94	1034,00
3074,87	1165,00
3078,80	1120,00
3082,73	1134,00
3086,65	1058,00
3090,57	1041,00
3094,49	960,00
3098,40	1007,00
3102,31	1039,00
3106,22	1034,00
3110,12	964,00
3114,02	869,00
3117,92	860,00
3121,81	955,00
3125,70	943,00
3129,58	905,00
3133,47	820,00
3137,34	942,00
3141,22	979,00
3145,09	950,00
3148,96	897,00
3152,83	910,00
3156,69	916,00
3160,55	897,00
3164,40	918,00
3168,26	891,00
3172,10	951,00
3175,95	935,00
3179,79	836,00
3183,63	956,00
3187,47	748,00
3191,30	878,00
3195,13	773,00
3198,95	778,00
3202,78	902,00
3206,60	845,00
3210,41	723,00
3214,23	825,00
3218,03	894,00
3221,84	803,00
3225,64	747,00
3229,44	752,00
3233,24	821,00
3237,03	707,00
3240,82	736,00
3244,61	728,00
3248,39	663,00
3252,17	783,00
3255,95	714,00
3259,72	771,00
3263,49	765,00
3267,26	745,00
3271,03	757,00
3274,79	653,00
3278,54	770,00
3282,30	649,00
3286,05	710,00
3289,80	704,00
3293,54	673,00
3297,29	767,00
3301,02	670,00
3304,76	748,00
3308,49	665,00
3312,22	654,00
3315,95	644,00
3319,67	665,00
3323,39	658,00
3327,10	653,00
3330,82	551,00
3334,53	672,00
3338,24	616,00
3341,94	566,00
3345,64	637,00
3349,34	652,00
3353,03	712,00
3356,72	659,00
3360,41	697,00
3364,10	490,00
3367,78	658,00
3371,46	637,00
3375,13	540,00
3378,81	621,00
3382,48	536,00
3386,14	607,00
3389,81	604,00
3393,47	566,00
3397,12	644,00
3400,78	561,00
3404,43	591,00
3408,08	596,00
3411,72	535,00
3415,36	537,00
3419,00	575,00
3422,64	642,00
3426,27	552,00
3429,90	585,00
3433,53	494,00
3437,15	445,00
3440,77	469,00
3444,39	452,00
3448,00	570,00
3451,62	551,00
3455,22	509,00
3458,83	447,00
3462,43	562,00
3466,03	512,00
3469,63	516,00
3473,22	454,00
3476,81	431,00
3480,40	516,00
3483,99	514,00
3487,57	477,00
3491,15	474,00
3494,72	572,00
3498,29	518,00
3501,86	409,00
3505,43	464,00
3508,99	406,00
3512,56	356,00
3516,11	498,00
3519,67	509,00
3523,22	435,00
3526,77	422,00
3530,32	600,00
3533,86	538,00
3537,40	454,00
3540,94	511,00
3544,47	448,00
3548,00	458,00
3551,53	466,00
3555,06	455,00
3558,58	436,00
3562,10	426,00
3565,62	387,00
3569,13	459,00
3572,64	516,00
3576,15	375,00
3579,66	454,00
3583,16	412,00
3586,66	500,00
3590,16	450,00
3593,65	341,00
3597,14	360,00
3600,63	411,00
3604,11	438,00
3607,60	432,00
3611,08	418,00
3614,55	440,00
3618,03	461,00
3621,50	373,00
3624,97	298,00
3628,43	368,00
3631,90	369,00
3635,36	350,00
3638,81	373,00
3642,27	329,00
3645,72	388,00
3649,17	395,00
3652,61	368,00
3656,06	346,00
3659,50	415,00
3662,93	381,00
3666,37	430,00
3669,80	541,00
3673,23	440,00
3676,65	257,00
3680,08	407,00
3683,50	367,00
3686,92	380,00
3690,33	395,00
3693,74	380,00
3697,15	356,00
3700,56	420,00
3703,96	343,00
3707,36	218,00
3710,76	357,00
3714,16	351,00
3717,55	334,00
3720,94	319,00
3724,33	311,00
3727,71	381,00
3731,10	371,00
3734,48	343,00
3737,85	329,00
3741,23	299,00
3744,60	281,00
3747,97	289,00
3751,33	382,00
3754,69	324,00
3758,05	303,00
3761,41	369,00
3764,77	342,00
3768,12	305,00
3771,47	240,00
3774,82	308,00
3778,16	-5,00
3781,50	7,00
3784,84	0,00
3788,18	5,00
>>>>>End Processed Spectral Data<<<<<
