SpectraSuite Data File
++++++++++++++++++++++++++++++++++++
Date: Mon Jan 05 16:24:40 ICT 2026
User: Administrator
Dark Spectrum Present: Yes
Reference Spectrum Present: No
Number of Sampled Component Spectra: 1
Spectrometers: MAYP113682
Integration Time (usec): 3000000 (MAYP113682)
Spectra Averaged: 1 (MAYP113682)
Boxcar Smoothing: 0 (MAYP113682)
Correct for Electrical Dark: No (MAYP113682)
Strobe/Lamp Enabled: No (MAYP113682)
Correct for Detector Non-linearity: No (MAYP113682)
Correct for Stray Light: No (MAYP113682)
Number of Pixels in Processed Spectrum: 2068
>>>>>Begin Processed Spectral Data<<<<<
-37534,58	12,00
-37414,56	8,00
-37295,11	4,00
-37176,24	0,00
-37057,95	280,00
-36940,22	303,00
-36823,05	265,00
-36706,45	412,00
-36590,40	364,00
-36474,90	295,00
-36359,95	399,00
-36245,55	359,00
-36131,68	313,00
-36018,35	326,00
-35905,55	323,00
-35793,29	392,00
-35681,54	309,00
-35570,32	376,00
-35459,62	370,00
-35349,43	395,00
-35239,75	374,00
-35130,58	338,00
-35021,91	310,00
-34913,74	350,00
-34806,07	398,00
-34698,89	391,00
-34592,20	361,00
-34486,00	385,00
-34380,28	382,00
-34275,04	320,00
-34170,27	290,00
-34065,98	471,00
-33962,16	414,00
-33858,81	397,00
-33755,92	361,00
-33653,49	503,00
-33551,52	460,00
-33450,01	353,00
-33348,94	318,00
-33248,33	413,00
-33148,16	413,00
-33048,43	392,00
-32949,14	479,00
-32850,29	343,00
-32751,87	290,00
-32653,89	319,00
-32556,33	387,00
-32459,20	307,00
-32362,49	448,00
-32266,19	409,00
-32170,32	338,00
-32074,86	427,00
-31979,82	475,00
-31885,18	514,00
-31790,95	487,00
-31697,12	522,00
-31603,69	405,00
-31510,67	457,00
-31418,04	375,00
-31325,80	369,00
-31233,95	333,00
-31142,49	384,00
-31051,42	404,00
-30960,73	392,00
-30870,43	462,00
-30780,50	366,00
-30690,95	433,00
-30601,77	523,00
-30512,97	441,00
-30424,53	421,00
-30336,46	396,00
-30248,76	421,00
-30161,42	402,00
-30074,44	299,00
-29987,81	441,00
-29901,55	456,00
-29815,63	370,00
-29730,07	409,00
-29644,86	455,00
-29560,00	410,00
-29475,48	459,00
-29391,30	462,00
-29307,47	368,00
-29223,97	353,00
-29140,81	447,00
-29057,99	490,00
-28975,50	296,00
-28893,34	412,00
-28811,51	371,00
-28730,00	414,00
-28648,82	321,00
-28567,97	515,00
-28487,43	416,00
-28407,21	439,00
-28327,32	359,00
-28247,73	493,00
-28168,46	355,00
-28089,50	495,00
-28010,85	274,00
-27932,51	334,00
-27854,48	308,00
-27776,75	375,00
-27699,32	315,00
-27622,19	363,00
-27545,37	404,00
-27468,84	420,00
-27392,60	456,00
-27316,66	376,00
-27241,01	419,00
-27165,66	338,00
-27090,59	321,00
-27015,81	367,00
-26941,31	445,00
-26867,10	317,00
-26793,17	496,00
-26719,52	443,00
-26646,15	295,00
-26573,06	309,00
-26500,24	410,00
-26427,70	403,00
-26355,43	290,00
-26283,43	364,00
-26211,71	291,00
-26140,25	486,00
-26069,06	384,00
-25998,13	355,00
-25927,46	351,00
-25857,06	371,00
-25786,92	407,00
-25717,04	386,00
-25647,42	472,00
-25578,05	370,00
-25508,94	333,00
-25440,09	356,00
-25371,48	414,00
-25303,13	460,00
-25235,02	418,00
-25167,17	378,00
-25099,56	397,00
-25032,19	419,00
-24965,07	320,00
-24898,20	335,00
-24831,56	197,00
-24765,17	347,00
-24699,01	335,00
-24633,10	411,00
-24567,41	369,00
-24501,97	276,00
-24436,75	329,00
-24371,77	313,00
-24307,03	376,00
-24242,51	416,00
-24178,22	292,00
-24114,16	310,00
-24050,32	417,00
-23986,71	387,00
-23923,32	397,00
-23860,16	441,00
-23797,22	406,00
-23734,50	412,00
-23672,00	352,00
-23609,71	403,00
-23547,65	375,00
-23485,80	475,00
-23424,16	285,00
-23362,74	451,00
-23301,53	396,00
-23240,54	314,00
-23179,75	384,00
-23119,17	344,00
-23058,80	343,00
-22998,64	406,00
-22938,68	343,00
-22878,93	364,00
-22819,39	262,00
-22760,04	420,00
-22700,90	383,00
-22641,96	434,00
-22583,22	328,00
-22524,68	325,00
-22466,33	381,00
-22408,19	480,00
-22350,23	294,00
-22292,48	413,00
-22234,92	381,00
-22177,55	379,00
-22120,37	440,00
-22063,38	341,00
-22006,58	388,00
-21949,98	348,00
-21893,56	323,00
-21837,33	378,00
-21781,28	405,00
-21725,42	348,00
-21669,74	374,00
-21614,25	389,00
-21558,94	349,00
-21503,81	435,00
-21448,86	384,00
-21394,10	354,00
-21339,51	388,00
-21285,10	349,00
-21230,86	332,00
-21176,81	348,00
-21122,93	310,00
-21069,22	268,00
-21015,69	413,00
-20962,33	359,00
-20909,14	386,00
-20856,13	376,00
-20803,28	395,00
-20750,61	405,00
-20698,10	341,00
-20645,76	329,00
-20593,59	427,00
-20541,59	355,00
-20489,75	419,00
-20438,07	264,00
-20386,56	370,00
-20335,22	285,00
-20284,03	395,00
-20233,01	437,00
-20182,15	276,00
-20131,45	381,00
-20080,91	227,00
-20030,52	413,00
-19980,30	382,00
-19930,23	299,00
-19880,32	342,00
-19830,56	315,00
-19780,96	445,00
-19731,52	341,00
-19682,23	422,00
-19633,09	356,00
-19584,10	313,00
-19535,26	384,00
-19486,58	397,00
-19438,04	301,00
-19389,66	384,00
-19341,42	402,00
-19293,33	360,00
-19245,39	418,00
-19197,60	470,00
-19149,95	388,00
-19102,45	349,00
-19055,09	326,00
-19007,87	303,00
-18960,80	459,00
-18913,87	309,00
-18867,09	394,00
-18820,44	447,00
-18773,94	386,00
-18727,57	443,00
-18681,35	296,00
-18635,26	317,00
-18589,31	341,00
-18543,50	398,00
-18497,83	326,00
-18452,29	386,00
-18406,89	274,00
-18361,63	448,00
-18316,50	378,00
-18271,50	438,00
-18226,63	402,00
-18181,90	442,00
-18137,30	386,00
-18092,84	353,00
-18048,50	417,00
-18004,29	354,00
-17960,22	271,00
-17916,27	393,00
-17872,45	416,00
-17828,76	454,00
-17785,20	309,00
-17741,77	408,00
-17698,46	417,00
-17655,28	386,00
-17612,22	427,00
-17569,29	325,00
-17526,48	434,00
-17483,79	499,00
-17441,23	355,00
-17398,79	351,00
-17356,48	341,00
-17314,28	486,00
-17272,21	294,00
-17230,26	416,00
-17188,42	393,00
-17146,71	406,00
-17105,12	313,00
-17063,64	304,00
-17022,28	329,00
-16981,04	368,00
-16939,92	352,00
-16898,91	481,00
-16858,02	352,00
-16817,25	433,00
-16776,59	335,00
-16736,04	346,00
-16695,61	321,00
-16655,29	389,00
-16615,09	312,00
-16574,99	388,00
-16535,01	349,00
-16495,15	392,00
-16455,39	402,00
-16415,74	338,00
-16376,21	320,00
-16336,78	292,00
-16297,46	404,00
-16258,26	360,00
-16219,16	309,00
-16180,17	373,00
-16141,28	427,00
-16102,51	402,00
-16063,84	335,00
-16025,27	420,00
-15986,82	341,00
-15948,46	396,00
-15910,22	336,00
-15872,07	372,00
-15834,04	348,00
-15796,10	370,00
-15758,27	521,00
-15720,54	367,00
-15682,91	391,00
-15645,39	551,00
-15607,97	378,00
-15570,64	343,00
-15533,42	420,00
-15496,30	420,00
-15459,28	384,00
-15422,36	375,00
-15385,54	329,00
-15348,82	433,00
-15312,19	453,00
-15275,66	326,00
-15239,23	482,00
-15202,90	349,00
-15166,67	349,00
-15130,53	419,00
-15094,48	433,00
-15058,54	352,00
-15022,68	385,00
-14986,93	331,00
-14951,26	475,00
-14915,69	458,00
-14880,22	368,00
-14844,84	383,00
-14809,55	345,00
-14774,35	346,00
-14739,25	249,00
-14704,24	343,00
-14669,32	377,00
-14634,49	392,00
-14599,75	403,00
-14565,10	335,00
-14530,55	374,00
-14496,08	420,00
-14461,70	429,00
-14427,41	419,00
-14393,21	291,00
-14359,10	315,00
-14325,07	391,00
-14291,14	331,00
-14257,29	360,00
-14223,52	375,00
-14189,85	432,00
-14156,26	400,00
-14122,76	275,00
-14089,34	322,00
-14056,01	384,00
-14022,76	285,00
-13989,60	400,00
-13956,52	436,00
-13923,53	415,00
-13890,62	274,00
-13857,79	361,00
-13825,05	346,00
-13792,39	295,00
-13759,81	395,00
-13727,31	371,00
-13694,90	361,00
-13662,57	423,00
-13630,31	413,00
-13598,14	402,00
-13566,05	344,00
-13534,05	350,00
-13502,12	354,00
-13470,27	342,00
-13438,50	447,00
-13406,80	355,00
-13375,19	401,00
-13343,66	366,00
-13312,20	302,00
-13280,83	348,00
-13249,53	382,00
-13218,30	302,00
-13187,16	280,00
-13156,09	450,00
-13125,10	351,00
-13094,18	392,00
-13063,34	350,00
-13032,58	398,00
-13001,89	373,00
-12971,28	414,00
-12940,74	369,00
-12910,27	442,00
-12879,88	410,00
-12849,57	370,00
-12819,33	423,00
-12789,16	376,00
-12759,06	340,00
-12729,04	367,00
-12699,09	239,00
-12669,21	372,00
-12639,41	403,00
-12609,68	377,00
-12580,02	346,00
-12550,43	478,00
-12520,91	321,00
-12491,46	385,00
-12462,08	275,00
-12432,77	399,00
-12403,54	307,00
-12374,37	326,00
-12345,27	451,00
-12316,24	365,00
-12287,29	386,00
-12258,40	357,00
-12229,57	465,00
-12200,82	314,00
-12172,14	428,00
-12143,52	311,00
-12114,97	354,00
-12086,49	353,00
-12058,07	395,00
-12029,73	301,00
-12001,44	472,00
-11973,23	353,00
-11945,08	341,00
-11917,00	383,00
-11888,98	287,00
-11861,03	479,00
-11833,15	350,00
-11805,32	452,00
-11777,57	344,00
-11749,88	413,00
-11722,25	316,00
-11694,69	358,00
-11667,19	425,00
-11639,75	431,00
-11612,38	371,00
-11585,07	371,00
-11557,83	384,00
-11530,65	485,00
-11503,53	272,00
-11476,47	342,00
-11449,48	344,00
-11422,54	426,00
-11395,67	440,00
-11368,86	375,00
-11342,11	341,00
-11315,43	321,00
-11288,80	391,00
-11262,23	319,00
-11235,73	338,00
-11209,28	539,00
-11182,90	351,00
-11156,57	334,00
-11130,31	512,00
-11104,10	380,00
-11077,96	350,00
-11051,87	284,00
-11025,84	309,00
-10999,87	364,00
-10973,96	336,00
-10948,11	318,00
-10922,31	431,00
-10896,58	362,00
-10870,90	431,00
-10845,28	448,00
-10819,71	343,00
-10794,20	429,00
-10768,75	371,00
-10743,36	428,00
-10718,02	354,00
-10692,74	421,00
-10667,52	375,00
-10642,35	396,00
-10617,24	372,00
-10592,18	337,00
-10567,18	388,00
-10542,23	318,00
-10517,34	312,00
-10492,51	384,00
-10467,72	321,00
-10443,00	448,00
-10418,32	443,00
-10393,70	407,00
-10369,14	321,00
-10344,63	327,00
-10320,17	392,00
-10295,77	335,00
-10271,42	367,00
-10247,12	356,00
-10222,88	488,00
-10198,68	403,00
-10174,54	411,00
-10150,46	489,00
-10126,42	455,00
-10102,44	229,00
-10078,51	395,00
-10054,63	419,00
-10030,80	373,00
-10007,03	425,00
-9983,30	421,00
-9959,63	440,00
-9936,01	519,00
-9912,44	414,00
-9888,92	462,00
-9865,44	387,00
-9842,02	377,00
-9818,65	423,00
-9795,33	331,00
-9772,06	492,00
-9748,84	421,00
-9725,67	401,00
-9702,55	424,00
-9679,47	433,00
-9656,45	474,00
-9633,47	381,00
-9610,55	327,00
-9587,67	413,00
-9564,84	621,00
-9542,06	518,00
-9519,32	580,00
-9496,64	608,00
-9474,00	428,00
-9451,41	495,00
-9428,87	383,00
-9406,37	429,00
-9383,92	389,00
-9361,52	367,00
-9339,17	530,00
-9316,86	443,00
-9294,60	671,00
-9272,38	531,00
-9250,21	742,00
-9228,09	682,00
-9206,01	594,00
-9183,98	568,00
-9162,00	532,00
-9140,06	721,00
-9118,16	553,00
-9096,31	530,00
-9074,51	639,00
-9052,75	619,00
-9031,04	698,00
-9009,37	608,00
-8987,74	566,00
-8966,16	491,00
-8944,63	481,00
-8923,14	570,00
-8901,69	495,00
-8880,29	488,00
-8858,93	538,00
-8837,61	564,00
-8816,34	677,00
-8795,11	705,00
-8773,92	439,00
-8752,78	540,00
-8731,68	439,00
-8710,62	550,00
-8689,61	493,00
-8668,63	568,00
-8647,70	687,00
-8626,82	654,00
-8605,97	694,00
-8585,17	687,00
-8564,41	496,00
-8543,69	431,00
-8523,01	398,00
-8502,37	545,00
-8481,78	595,00
-8461,23	418,00
-8440,71	588,00
-8420,24	544,00
-8399,81	700,00
-8379,42	623,00
-8359,08	550,00
-8338,77	511,00
-8318,50	431,00
-8298,27	357,00
-8278,09	550,00
-8257,94	546,00
-8237,83	579,00
-8217,76	498,00
-8197,74	525,00
-8177,75	638,00
-8157,80	463,00
-8137,89	473,00
-8118,02	462,00
-8098,19	561,00
-8078,40	521,00
-8058,65	498,00
-8038,93	505,00
-8019,26	502,00
-7999,62	567,00
-7980,02	491,00
-7960,46	415,00
-7940,94	439,00
-7921,46	447,00
-7902,01	493,00
-7882,60	455,00
-7863,23	571,00
-7843,90	503,00
-7824,61	529,00
-7805,35	599,00
-7786,13	489,00
-7766,95	586,00
-7747,80	502,00
-7728,69	497,00
-7709,62	507,00
-7690,59	555,00
-7671,59	555,00
-7652,63	472,00
-7633,70	463,00
-7614,81	581,00
-7595,96	500,00
-7577,15	561,00
-7558,37	416,00
-7539,62	432,00
-7520,91	439,00
-7502,24	469,00
-7483,60	391,00
-7465,00	550,00
-7446,44	487,00
-7427,91	356,00
-7409,41	396,00
-7390,95	375,00
-7372,53	278,00
-7354,14	351,00
-7335,78	402,00
-7317,46	306,00
-7299,18	312,00
-7280,92	414,00
-7262,71	465,00
-7244,52	470,00
-7226,38	367,00
-7208,26	231,00
-7190,18	335,00
-7172,14	472,00
-7154,12	282,00
-7136,15	318,00
-7118,20	449,00
-7100,29	382,00
-7082,41	416,00
-7064,57	369,00
-7046,76	398,00
-7028,98	244,00
-7011,24	335,00
-6993,53	232,00
-6975,85	514,00
-6958,20	296,00
-6940,59	346,00
-6923,01	177,00
-6905,46	402,00
-6887,94	243,00
-6870,46	-1805,00
-6853,01	389,00
-6835,59	375,00
-6818,21	265,00
-6800,85	385,00
-6783,53	284,00
-6766,24	262,00
-6748,98	296,00
-6731,76	312,00
-6714,56	298,00
-6697,40	197,00
-6680,26	251,00
-6663,16	191,00
-6646,09	358,00
-6629,05	423,00
-6612,05	236,00
-6595,07	208,00
-6578,13	302,00
-6561,21	188,00
-6544,33	313,00
-6527,47	126,00
-6510,65	261,00
-6493,86	94,00
-6477,10	213,00
-6460,36	293,00
-6443,66	222,00
-6426,99	292,00
-6410,35	133,00
-6393,74	310,00
-6377,16	169,00
-6360,61	208,00
-6344,09	120,00
-6327,59	194,00
-6311,13	360,00
-6294,70	286,00
-6278,29	224,00
-6261,92	202,00
-6245,58	365,00
-6229,26	205,00
-6212,97	306,00
-6196,72	190,00
-6180,49	276,00
-6164,29	182,00
-6148,12	363,00
-6131,98	392,00
-6115,86	214,00
-6099,78	192,00
-6083,72	234,00
-6067,69	231,00
-6051,69	257,00
-6035,72	307,00
-6019,78	323,00
-6003,87	365,00
-5987,98	237,00
-5972,12	240,00
-5956,29	246,00
-5940,49	149,00
-5924,71	387,00
-5908,96	319,00
-5893,24	240,00
-5877,55	270,00
-5861,89	225,00
-5846,25	84,00
-5830,64	294,00
-5815,05	226,00
-5799,50	190,00
-5783,97	305,00
-5768,47	326,00
-5752,99	331,00
-5737,55	182,00
-5722,12	288,00
-5706,73	263,00
-5691,36	406,00
-5676,02	270,00
-5660,71	240,00
-5645,42	300,00
-5630,16	350,00
-5614,92	325,00
-5599,71	253,00
-5584,53	220,00
-5569,37	283,00
-5554,24	471,00
-5539,14	206,00
-5524,06	231,00
-5509,01	316,00
-5493,98	220,00
-5478,98	250,00
-5464,00	211,00
-5449,05	216,00
-5434,13	281,00
-5419,23	230,00
-5404,36	153,00
-5389,51	260,00
-5374,69	271,00
-5359,89	239,00
-5345,12	234,00
-5330,37	372,00
-5315,65	299,00
-5300,95	386,00
-5286,28	327,00
-5271,63	176,00
-5257,01	263,00
-5242,41	254,00
-5227,84	185,00
-5213,29	323,00
-5198,76	297,00
-5184,26	370,00
-5169,79	282,00
-5155,33	263,00
-5140,91	200,00
-5126,51	247,00
-5112,13	311,00
-5097,77	309,00
-5083,44	326,00
-5069,13	245,00
-5054,85	325,00
-5040,59	301,00
-5026,36	321,00
-5012,15	249,00
-4997,96	203,00
-4983,80	336,00
-4969,66	346,00
-4955,54	321,00
-4941,44	290,00
-4927,37	204,00
-4913,33	248,00
-4899,30	331,00
-4885,30	399,00
-4871,33	248,00
-4857,37	273,00
-4843,44	280,00
-4829,53	402,00
-4815,65	270,00
-4801,79	172,00
-4787,95	308,00
-4774,13	255,00
-4760,34	346,00
-4746,56	408,00
-4732,82	277,00
-4719,09	331,00
-4705,38	388,00
-4691,70	355,00
-4678,04	382,00
-4664,41	362,00
-4650,79	404,00
-4637,20	315,00
-4623,63	297,00
-4610,08	404,00
-4596,56	176,00
-4583,05	212,00
-4569,57	167,00
-4556,11	401,00
-4542,67	307,00
-4529,25	229,00
-4515,86	232,00
-4502,49	286,00
-4489,13	369,00
-4475,80	508,00
-4462,49	257,00
-4449,21	433,00
-4435,94	376,00
-4422,70	236,00
-4409,47	238,00
-4396,27	386,00
-4383,09	308,00
-4369,93	347,00
-4356,79	307,00
-4343,67	388,00
-4330,58	378,00
-4317,50	414,00
-4304,45	368,00
-4291,41	374,00
-4278,40	334,00
-4265,41	343,00
-4252,44	358,00
-4239,49	282,00
-4226,55	328,00
-4213,65	314,00
-4200,76	415,00
-4187,89	437,00
-4175,04	238,00
-4162,21	254,00
-4149,40	399,00
-4136,61	346,00
-4123,85	312,00
-4111,10	355,00
-4098,37	377,00
-4085,66	376,00
-4072,98	361,00
-4060,31	313,00
-4047,66	427,00
-4035,04	495,00
-4022,43	316,00
-4009,84	363,00
-3997,27	308,00
-3984,72	457,00
-3972,19	392,00
-3959,69	373,00
-3947,20	366,00
-3934,73	359,00
-3922,27	277,00
-3909,84	349,00
-3897,43	388,00
-3885,04	471,00
-3872,67	360,00
-3860,31	345,00
-3847,98	462,00
-3835,66	337,00
-3823,36	333,00
-3811,09	379,00
-3798,83	418,00
-3786,59	364,00
-3774,37	502,00
-3762,17	280,00
-3749,98	381,00
-3737,82	441,00
-3725,67	481,00
-3713,55	333,00
-3701,44	444,00
-3689,35	398,00
-3677,28	430,00
-3665,22	347,00
-3653,19	343,00
-3641,17	391,00
-3629,18	405,00
-3617,20	427,00
-3605,24	389,00
-3593,30	424,00
-3581,37	436,00
-3569,47	423,00
-3557,58	433,00
-3545,71	423,00
-3533,86	411,00
-3522,02	307,00
-3510,21	353,00
-3498,41	392,00
-3486,63	310,00
-3474,87	422,00
-3463,12	417,00
-3451,40	361,00
-3439,69	426,00
-3428,00	318,00
-3416,33	424,00
-3404,67	332,00
-3393,03	366,00
-3381,41	454,00
-3369,81	445,00
-3358,22	462,00
-3346,66	501,00
-3335,10	442,00
-3323,57	331,00
-3312,06	396,00
-3300,56	374,00
-3289,08	358,00
-3277,61	410,00
-3266,16	386,00
-3254,73	392,00
-3243,32	410,00
-3231,92	262,00
-3220,55	439,00
-3209,18	505,00
-3197,84	368,00
-3186,51	383,00
-3175,20	376,00
-3163,90	303,00
-3152,63	499,00
-3141,36	342,00
-3130,12	428,00
-3118,89	457,00
-3107,68	341,00
-3096,49	476,00
-3085,31	283,00
-3074,15	476,00
-3063,00	357,00
-3051,87	388,00
-3040,76	308,00
-3029,67	489,00
-3018,59	503,00
-3007,52	522,00
-2996,48	411,00
-2985,44	445,00
-2974,43	349,00
-2963,43	275,00
-2952,45	504,00
-2941,48	409,00
-2930,53	409,00
-2919,60	309,00
-2908,68	338,00
-2897,78	360,00
-2886,89	385,00
-2876,02	433,00
-2865,17	378,00
-2854,33	363,00
-2843,50	404,00
-2832,70	357,00
-2821,90	330,00
-2811,13	412,00
-2800,37	410,00
-2789,62	292,00
-2778,89	403,00
-2768,18	411,00
-2757,48	390,00
-2746,80	371,00
-2736,13	390,00
-2725,48	408,00
-2714,84	289,00
-2704,22	427,00
-2693,61	347,00
-2683,02	460,00
-2672,45	350,00
-2661,89	304,00
-2651,34	357,00
-2640,81	395,00
-2630,30	436,00
-2619,80	360,00
-2609,31	373,00
-2598,84	375,00
-2588,39	407,00
-2577,95	441,00
-2567,52	317,00
-2557,11	338,00
-2546,71	428,00
-2536,33	421,00
-2525,97	361,00
-2515,62	347,00
-2505,28	462,00
-2494,96	396,00
-2484,65	392,00
-2474,36	489,00
-2464,08	341,00
-2453,82	497,00
-2443,57	312,00
-2433,33	308,00
-2423,11	411,00
-2412,91	445,00
-2402,72	322,00
-2392,54	304,00
-2382,38	385,00
-2372,23	395,00
-2362,09	-2751,00
-2351,97	424,00
-2341,87	347,00
-2331,78	371,00
-2321,70	388,00
-2311,64	360,00
-2301,59	484,00
-2291,55	357,00
-2281,53	433,00
-2271,53	299,00
-2261,53	428,00
-2251,55	421,00
-2241,59	382,00
-2231,64	356,00
-2221,70	388,00
-2211,78	406,00
-2201,87	412,00
-2191,97	459,00
-2182,09	366,00
-2172,22	460,00
-2162,37	347,00
-2152,53	341,00
-2142,70	400,00
-2132,89	378,00
-2123,09	377,00
-2113,30	381,00
-2103,53	371,00
-2093,77	476,00
-2084,02	385,00
-2074,29	412,00
-2064,57	327,00
-2054,86	416,00
-2045,17	433,00
-2035,49	409,00
-2025,82	380,00
-2016,17	460,00
-2006,53	357,00
-1996,91	386,00
-1987,29	333,00
-1977,69	399,00
-1968,11	306,00
-1958,53	318,00
-1948,97	394,00
-1939,42	351,00
-1929,89	416,00
-1920,37	419,00
-1910,86	318,00
-1901,36	397,00
-1891,88	479,00
-1882,41	384,00
-1872,95	456,00
-1863,51	379,00
-1854,08	382,00
-1844,66	428,00
-1835,26	473,00
-1825,86	443,00
-1816,48	317,00
-1807,11	447,00
-1797,76	444,00
-1788,42	458,00
-1779,09	330,00
-1769,77	293,00
-1760,47	530,00
-1751,17	376,00
-1741,89	344,00
-1732,63	436,00
-1723,37	443,00
-1714,13	406,00
-1704,90	399,00
-1695,68	520,00
-1686,48	333,00
-1677,29	365,00
-1668,11	455,00
-1658,94	340,00
-1649,78	337,00
-1640,64	409,00
-1631,51	375,00
-1622,39	462,00
-1613,28	468,00
-1604,19	498,00
-1595,10	437,00
-1586,03	348,00
-1576,97	517,00
-1567,93	352,00
-1558,89	364,00
-1549,87	364,00
-1540,86	357,00
-1531,86	353,00
-1522,87	403,00
-1513,90	454,00
-1504,93	426,00
-1495,98	431,00
-1487,04	428,00
-1478,12	391,00
-1469,20	337,00
-1460,30	413,00
-1451,40	520,00
-1442,52	404,00
-1433,65	513,00
-1424,80	403,00
-1415,95	389,00
-1407,12	494,00
-1398,30	430,00
-1389,48	445,00
-1380,69	304,00
-1371,90	324,00
-1363,12	442,00
-1354,36	482,00
-1345,60	406,00
-1336,86	401,00
-1328,13	451,00
-1319,41	524,00
-1310,70	378,00
-1302,01	303,00
-1293,32	350,00
-1284,65	448,00
-1275,99	439,00
-1267,33	508,00
-1258,69	426,00
-1250,06	400,00
-1241,45	359,00
-1232,84	473,00
-1224,25	370,00
-1215,66	413,00
-1207,09	447,00
-1198,53	415,00
-1189,97	449,00
-1181,43	318,00
-1172,91	321,00
-1164,39	384,00
-1155,88	347,00
-1147,38	316,00
-1138,90	416,00
-1130,43	312,00
-1121,96	418,00
-1113,51	364,00
-1105,07	371,00
-1096,64	429,00
-1088,22	427,00
-1079,81	494,00
-1071,41	494,00
-1063,02	397,00
-1054,65	469,00
-1046,28	369,00
-1037,92	466,00
-1029,58	353,00
-1021,24	432,00
-1012,92	532,00
-1004,61	439,00
-996,30	470,00
-988,01	321,00
-979,73	438,00
-971,46	506,00
-963,20	447,00
-954,95	375,00
-946,71	313,00
-938,48	451,00
-930,26	457,00
-922,06	402,00
-913,86	283,00
-905,67	341,00
-897,49	455,00
-889,33	241,00
-881,17	482,00
-873,02	356,00
-864,89	313,00
-856,76	383,00
-848,65	411,00
-840,54	502,00
-832,45	462,00
-824,36	348,00
-816,29	419,00
-808,22	421,00
-800,17	515,00
-792,12	426,00
-784,09	385,00
-776,06	346,00
-768,05	432,00
-760,04	366,00
-752,05	444,00
-744,07	387,00
-736,09	413,00
-728,13	336,00
-720,17	389,00
-712,23	383,00
-704,29	330,00
-696,37	329,00
-688,45	484,00
-680,55	435,00
-672,65	433,00
-664,77	435,00
-656,89	368,00
-649,03	435,00
-641,17	371,00
-633,32	359,00
-625,49	495,00
-617,66	338,00
-609,84	459,00
-602,03	357,00
-594,23	529,00
-586,45	455,00
-578,67	447,00
-570,90	464,00
-563,14	339,00
-555,39	462,00
-547,65	398,00
-539,91	370,00
-532,19	461,00
-524,48	363,00
-516,78	291,00
-509,08	491,00
-501,40	455,00
-493,72	383,00
-486,06	385,00
-478,40	402,00
-470,76	388,00
-463,12	398,00
-455,49	444,00
-447,87	365,00
-440,26	446,00
-432,66	424,00
-425,07	463,00
-417,49	424,00
-409,92	286,00
-402,35	403,00
-394,80	291,00
-387,25	405,00
-379,72	402,00
-372,19	543,00
-364,67	503,00
-357,17	381,00
-349,67	446,00
-342,18	414,00
-334,69	420,00
-327,22	432,00
-319,76	434,00
-312,30	483,00
-304,86	416,00
-297,42	459,00
-290,00	375,00
-282,58	500,00
-275,17	529,00
-267,77	538,00
-260,37	357,00
-252,99	554,00
-245,62	529,00
-238,25	487,00
-230,90	429,00
-223,55	528,00
-216,21	514,00
-208,88	714,00
-201,56	474,00
-194,25	553,00
-186,94	632,00
-179,65	543,00
-172,36	650,00
-165,08	645,00
-157,81	671,00
-150,55	682,00
-143,30	765,00
-136,06	820,00
-128,82	766,00
-121,60	815,00
-114,38	908,00
-107,17	1158,00
-99,97	1167,00
-92,78	1199,00
-85,60	1312,00
-78,42	1577,00
-71,25	1675,00
-64,10	1877,00
-56,95	2076,00
-49,81	2387,00
-42,67	2994,00
-35,55	3580,00
-28,43	4710,00
-21,33	7486,00
-14,23	23470,00
-7,14	57498,00
-0,05	57284,00
7,02	57012,00
14,09	57319,00
21,14	20961,00
28,19	8943,00
35,23	5815,00
42,27	4587,00
49,29	3831,00
56,31	3315,00
63,32	2915,00
70,32	2487,00
77,31	2292,00
84,29	1959,00
91,27	1824,00
98,23	1806,00
105,19	1806,00
112,14	2400,00
119,09	4628,00
126,02	8125,00
132,95	10457,00
139,87	11222,00
146,78	11589,00
153,68	11589,00
160,58	11481,00
167,46	11302,00
174,34	11483,00
181,21	11502,00
188,08	11571,00
194,93	11427,00
201,78	11482,00
208,62	11657,00
215,45	11706,00
222,27	11668,00
229,09	11821,00
235,90	11786,00
242,70	11633,00
249,49	11486,00
256,27	11707,00
263,05	11547,00
269,82	11675,00
276,58	11486,00
283,33	11422,00
290,08	11423,00
296,82	11213,00
303,55	11282,00
310,27	11161,00
316,98	11176,00
323,69	11136,00
330,39	11084,00
337,08	11144,00
343,76	11192,00
350,44	11178,00
357,11	11177,00
363,77	11058,00
370,42	11182,00
377,07	11122,00
383,71	11135,00
390,34	11291,00
396,96	11279,00
403,58	11399,00
410,19	11353,00
416,79	11381,00
423,38	11220,00
429,97	11249,00
436,55	10951,00
443,12	10948,00
449,68	10909,00
456,24	10739,00
462,79	10841,00
469,33	10701,00
475,86	10839,00
482,39	10640,00
488,91	10700,00
495,42	10590,00
501,93	10652,00
508,42	10469,00
514,91	10364,00
521,40	10430,00
527,87	10233,00
534,34	10413,00
540,80	10240,00
547,25	10392,00
553,70	10351,00
560,14	10344,00
566,57	10451,00
573,00	10412,00
579,41	10560,00
585,83	10414,00
592,23	10429,00
598,62	10439,00
605,01	10383,00
611,40	10259,00
617,77	10122,00
624,14	10142,00
630,50	10120,00
636,85	9994,00
643,20	9958,00
649,54	10015,00
655,87	9971,00
662,20	9855,00
668,52	9922,00
674,83	9773,00
681,13	9628,00
687,43	9795,00
693,72	9720,00
700,00	9664,00
706,28	9698,00
712,55	9601,00
718,81	9694,00
725,07	9593,00
731,32	9706,00
737,56	9735,00
743,79	9615,00
750,02	9868,00
756,24	9533,00
762,46	9542,00
768,67	9613,00
774,87	9750,00
781,06	9512,00
787,25	9651,00
793,43	9651,00
799,60	9557,00
805,77	9564,00
811,93	9656,00
818,08	9641,00
824,23	9485,00
830,37	9724,00
836,50	9471,00
842,63	9423,00
848,75	9373,00
854,87	9176,00
860,97	9497,00
867,07	9308,00
873,17	9315,00
879,25	9329,00
885,33	9175,00
891,41	9045,00
897,47	9148,00
903,53	9064,00
909,59	9087,00
915,63	9062,00
921,67	9062,00
927,71	9053,00
933,74	8961,00
939,76	8880,00
945,77	8890,00
951,78	9046,00
957,78	8755,00
963,78	9001,00
969,77	8947,00
975,75	8910,00
981,72	8931,00
987,69	9403,00
993,66	9029,00
999,61	8871,00
1005,56	8963,00
1011,51	8969,00
1017,44	9026,00
1023,37	8833,00
1029,30	9015,00
1035,22	9046,00
1041,13	9090,00
1047,03	9064,00
1052,93	9068,00
1058,83	9452,00
1064,71	9739,00
1070,59	9307,00
1076,47	8991,00
1082,33	9099,00
1088,20	8833,00
1094,05	8830,00
1099,90	8757,00
1105,74	8733,00
1111,58	8893,00
1117,41	8893,00
1123,23	9086,00
1129,05	9310,00
1134,86	9219,00
1140,67	9077,00
1146,47	8738,00
1152,26	8851,00
1158,05	8530,00
1163,83	8824,00
1169,60	8807,00
1175,37	8774,00
1181,13	8749,00
1186,89	8685,00
1192,64	8641,00
1198,38	8676,00
1204,12	8530,00
1209,85	8610,00
1215,58	8549,00
1221,30	8663,00
1227,02	8491,00
1232,72	8555,00
1238,43	8645,00
1244,12	8473,00
1249,81	8627,00
1255,50	8679,00
1261,17	8702,00
1266,85	8604,00
1272,51	8652,00
1278,17	8736,00
1283,83	8769,00
1289,47	9213,00
1295,12	9479,00
1300,75	9311,00
1306,38	9171,00
1312,01	8921,00
1317,63	8617,00
1323,24	8635,00
1328,85	8502,00
1334,45	8469,00
1340,04	8388,00
1345,63	8481,00
1351,22	8549,00
1356,80	8470,00
1362,37	8591,00
1367,93	8555,00
1373,49	8641,00
1379,05	8606,00
1384,60	8571,00
1390,14	8468,00
1395,68	8542,00
1401,21	8531,00
1406,74	8654,00
1412,26	8872,00
1417,77	9021,00
1423,28	8842,00
1428,78	9111,00
1434,28	9428,00
1439,77	9604,00
1445,26	9469,00
1450,74	9601,00
1456,22	9206,00
1461,68	9168,00
1467,15	8999,00
1472,61	8759,00
1478,06	8540,00
1483,51	8466,00
1488,95	8338,00
1494,38	8207,00
1499,81	8208,00
1505,24	8173,00
1510,65	7941,00
1516,07	8078,00
1521,48	7958,00
1526,88	7988,00
1532,27	7918,00
1537,67	7871,00
1543,05	7836,00
1548,43	7834,00
1553,81	7832,00
1559,18	7646,00
1564,54	7757,00
1569,90	7667,00
1575,25	7650,00
1580,60	7562,00
1585,94	7618,00
1591,28	7624,00
1596,61	7545,00
1601,93	7462,00
1607,25	7616,00
1612,57	7423,00
1617,88	7394,00
1623,18	7490,00
1628,48	7419,00
1633,77	7346,00
1639,06	7284,00
1644,34	7310,00
1649,62	7147,00
1654,89	7228,00
1660,16	7180,00
1665,42	7206,00
1670,67	7143,00
1675,92	6975,00
1681,17	7056,00
1686,41	6992,00
1691,64	6929,00
1696,87	6951,00
1702,10	6955,00
1707,32	6854,00
1712,53	6804,00
1717,74	6883,00
1722,94	6910,00
1728,14	6714,00
1733,33	6627,00
1738,52	6610,00
1743,70	6678,00
1748,88	6599,00
1754,05	6619,00
1759,22	6412,00
1764,38	6627,00
1769,53	6481,00
1774,69	6534,00
1779,83	6272,00
1784,97	6327,00
1790,11	6307,00
1795,24	6250,00
1800,36	6189,00
1805,48	6148,00
1810,60	6272,00
1815,71	6164,00
1820,82	6125,00
1825,92	6341,00
1831,01	6205,00
1836,10	6085,00
1841,19	6194,00
1846,26	6065,00
1851,34	6166,00
1856,41	6125,00
1861,47	6045,00
1866,53	6183,00
1871,59	6087,00
1876,64	6019,00
1881,68	5883,00
1886,72	5992,00
1891,76	5945,00
1896,79	5847,00
1901,81	5730,00
1906,83	5684,00
1911,85	5700,00
1916,86	5581,00
1921,86	5480,00
1926,86	5510,00
1931,86	5658,00
1936,85	5412,00
1941,83	5389,00
1946,81	5416,00
1951,79	5277,00
1956,76	5340,00
1961,72	5263,00
1966,68	5189,00
1971,64	5234,00
1976,59	5196,00
1981,54	5232,00
1986,48	5165,00
1991,42	5092,00
1996,35	5257,00
2001,27	5104,00
2006,20	5028,00
2011,11	5168,00
2016,03	5155,00
2020,93	4970,00
2025,84	5122,00
2030,73	4966,00
2035,63	4860,00
2040,52	5042,00
2045,40	5034,00
2050,28	4925,00
2055,15	4954,00
2060,02	4731,00
2064,89	4868,00
2069,75	4824,00
2074,60	4771,00
2079,46	4776,00
2084,30	4716,00
2089,14	4858,00
2093,98	4783,00
2098,81	4741,00
2103,64	4762,00
2108,46	4691,00
2113,28	4865,00
2118,09	4713,00
2122,90	4769,00
2127,70	4633,00
2132,50	4610,00
2137,30	4579,00
2142,09	4475,00
2146,87	4447,00
2151,66	4574,00
2156,43	4444,00
2161,20	4476,00
2165,97	4565,00
2170,73	4411,00
2175,49	4416,00
2180,24	4458,00
2184,99	4413,00
2189,74	4390,00
2194,48	4344,00
2199,21	4350,00
2203,94	4233,00
2208,67	4234,00
2213,39	4157,00
2218,11	4341,00
2222,82	4242,00
2227,53	4205,00
2232,23	4166,00
2236,93	4171,00
2241,63	4058,00
2246,32	4093,00
2251,00	4079,00
2255,68	3966,00
2260,36	4055,00
2265,03	4061,00
2269,70	4077,00
2274,36	3943,00
2279,02	4047,00
2283,68	3986,00
2288,33	3971,00
2292,97	3901,00
2297,61	3874,00
2302,25	3962,00
2306,88	3809,00
2311,51	3839,00
2316,14	3742,00
2320,75	3732,00
2325,37	3657,00
2329,98	3771,00
2334,59	3780,00
2339,19	3687,00
2343,79	3665,00
2348,38	3646,00
2352,97	3572,00
2357,55	3579,00
2362,13	3520,00
2366,71	3533,00
2371,28	3598,00
2375,85	3520,00
2380,41	3496,00
2384,97	3332,00
2389,52	3478,00
2394,07	3500,00
2398,62	3363,00
2403,16	3449,00
2407,70	3342,00
2412,23	3236,00
2416,76	3319,00
2421,29	3289,00
2425,81	3388,00
2430,32	3327,00
2434,84	3164,00
2439,34	3116,00
2443,85	3370,00
2448,35	3088,00
2452,84	3035,00
2457,33	3136,00
2461,82	3083,00
2466,30	3070,00
2470,78	3016,00
2475,25	2987,00
2479,72	3064,00
2484,19	3077,00
2488,65	2970,00
2493,11	2953,00
2497,56	3007,00
2502,01	2876,00
2506,46	2942,00
2510,90	2838,00
2515,34	2835,00
2519,77	2948,00
2524,20	2895,00
2528,62	2856,00
2533,04	2916,00
2537,46	2806,00
2541,87	2775,00
2546,28	2729,00
2550,68	2843,00
2555,08	2758,00
2559,48	2704,00
2563,87	2639,00
2568,26	2559,00
2572,64	2680,00
2577,02	2573,00
2581,40	2492,00
2585,77	2608,00
2590,14	2546,00
2594,50	2461,00
2598,86	2541,00
2603,22	2390,00
2607,57	2367,00
2611,92	2443,00
2616,26	2508,00
2620,60	2490,00
2624,94	2395,00
2629,27	2434,00
2633,60	2354,00
2637,92	2305,00
2642,24	2393,00
2646,56	2375,00
2650,87	2298,00
2655,18	2332,00
2659,48	2238,00
2663,78	2297,00
2668,08	2222,00
2672,37	2288,00
2676,66	2193,00
2680,95	2211,00
2685,23	2293,00
2689,50	2288,00
2693,78	2241,00
2698,05	2233,00
2702,31	2277,00
2706,57	2347,00
2710,83	2322,00
2715,08	2386,00
2719,33	2366,00
2723,58	2323,00
2727,82	2353,00
2732,06	2246,00
2736,29	2340,00
2740,53	2211,00
2744,75	2219,00
2748,97	2095,00
2753,19	2119,00
2757,41	2133,00
2761,62	2167,00
2765,83	2185,00
2770,03	2166,00
2774,23	2270,00
2778,43	2039,00
2782,62	2137,00
2786,81	2141,00
2791,00	2087,00
2795,18	2054,00
2799,35	2027,00
2803,53	2017,00
2807,70	1977,00
2811,86	2145,00
2816,03	2283,00
2820,19	2118,00
2824,34	2107,00
2828,49	2331,00
2832,64	2354,00
2836,78	2500,00
2840,92	2685,00
2845,06	2964,00
2849,19	3117,00
2853,32	3183,00
2857,45	3128,00
2861,57	3120,00
2865,69	3094,00
2869,80	2963,00
2873,91	3023,00
2878,02	3227,00
2882,12	3274,00
2886,22	3254,00
2890,32	3035,00
2894,41	2978,00
2898,50	2880,00
2902,58	2813,00
2906,67	2648,00
2910,74	2636,00
2914,82	2499,00
2918,89	2625,00
2922,96	2331,00
2927,02	2215,00
2931,08	2208,00
2935,13	2175,00
2939,19	2139,00
2943,24	2023,00
2947,28	2021,00
2951,32	1810,00
2955,36	1821,00
2959,40	1848,00
2963,43	1678,00
2967,46	1608,00
2971,48	1633,00
2975,50	1558,00
2979,52	1668,00
2983,53	1587,00
2987,54	1544,00
2991,55	1500,00
2995,55	1519,00
2999,55	1378,00
3003,54	1435,00
3007,54	1487,00
3011,53	1471,00
3015,51	1323,00
3019,49	1305,00
3023,47	1307,00
3027,45	1433,00
3031,42	1285,00
3035,39	1361,00
3039,35	1312,00
3043,31	1266,00
3047,27	1258,00
3051,22	1372,00
3055,17	1292,00
3059,12	1256,00
3063,06	1223,00
3067,00	1157,00
3070,94	1107,00
3074,87	1247,00
3078,80	1235,00
3082,73	1127,00
3086,65	1111,00
3090,57	1213,00
3094,49	1050,00
3098,40	1061,00
3102,31	1093,00
3106,22	1065,00
3110,12	1065,00
3114,02	979,00
3117,92	977,00
3121,81	1030,00
3125,70	1116,00
3129,58	1086,00
3133,47	923,00
3137,34	1121,00
3141,22	1080,00
3145,09	985,00
3148,96	1037,00
3152,83	1039,00
3156,69	1108,00
3160,55	978,00
3164,40	977,00
3168,26	966,00
3172,10	1022,00
3175,95	940,00
3179,79	1048,00
3183,63	962,00
3187,47	948,00
3191,30	926,00
3195,13	922,00
3198,95	911,00
3202,78	895,00
3206,60	879,00
3210,41	844,00
3214,23	842,00
3218,03	900,00
3221,84	869,00
3225,64	899,00
3229,44	842,00
3233,24	962,00
3237,03	775,00
3240,82	838,00
3244,61	756,00
3248,39	752,00
3252,17	917,00
3255,95	878,00
3259,72	749,00
3263,49	885,00
3267,26	700,00
3271,03	806,00
3274,79	773,00
3278,54	766,00
3282,30	660,00
3286,05	814,00
3289,80	838,00
3293,54	773,00
3297,29	833,00
3301,02	701,00
3304,76	724,00
3308,49	749,00
3312,22	678,00
3315,95	765,00
3319,67	677,00
3323,39	735,00
3327,10	705,00
3330,82	708,00
3334,53	742,00
3338,24	665,00
3341,94	627,00
3345,64	703,00
3349,34	707,00
3353,03	703,00
3356,72	738,00
3360,41	648,00
3364,10	605,00
3367,78	683,00
3371,46	614,00
3375,13	651,00
3378,81	649,00
3382,48	644,00
3386,14	647,00
3389,81	651,00
3393,47	644,00
3397,12	728,00
3400,78	695,00
3404,43	613,00
3408,08	681,00
3411,72	538,00
3415,36	536,00
3419,00	607,00
3422,64	569,00
3426,27	559,00
3429,90	665,00
3433,53	547,00
3437,15	564,00
3440,77	554,00
3444,39	558,00
3448,00	564,00
3451,62	568,00
3455,22	620,00
3458,83	471,00
3462,43	545,00
3466,03	610,00
3469,63	524,00
3473,22	539,00
3476,81	498,00
3480,40	673,00
3483,99	486,00
3487,57	494,00
3491,15	542,00
3494,72	602,00
3498,29	601,00
3501,86	487,00
3505,43	489,00
3508,99	529,00
3512,56	388,00
3516,11	536,00
3519,67	497,00
3523,22	518,00
3526,77	427,00
3530,32	617,00
3533,86	495,00
3537,40	561,00
3540,94	516,00
3544,47	549,00
3548,00	423,00
3551,53	504,00
3555,06	493,00
3558,58	554,00
3562,10	490,00
3565,62	307,00
3569,13	464,00
3572,64	507,00
3576,15	464,00
3579,66	410,00
3583,16	479,00
3586,66	452,00
3590,16	399,00
3593,65	426,00
3597,14	488,00
3600,63	361,00
3604,11	407,00
3607,60	465,00
3611,08	473,00
3614,55	424,00
3618,03	476,00
3621,50	393,00
3624,97	402,00
3628,43	376,00
3631,90	470,00
3635,36	347,00
3638,81	381,00
3642,27	338,00
3645,72	450,00
3649,17	394,00
3652,61	369,00
3656,06	328,00
3659,50	392,00
3662,93	404,00
3666,37	424,00
3669,80	544,00
3673,23	423,00
3676,65	348,00
3680,08	325,00
3683,50	368,00
3686,92	365,00
3690,33	367,00
3693,74	417,00
3697,15	382,00
3700,56	462,00
3703,96	440,00
3707,36	244,00
3710,76	392,00
3714,16	379,00
3717,55	333,00
3720,94	290,00
3724,33	359,00
3727,71	372,00
3731,10	340,00
3734,48	411,00
3737,85	425,00
3741,23	336,00
3744,60	323,00
3747,97	327,00
3751,33	423,00
3754,69	343,00
3758,05	372,00
3761,41	300,00
3764,77	319,00
3768,12	318,00
3771,47	275,00
3774,82	378,00
3778,16	-8,00
3781,50	9,00
3784,84	-3,00
3788,18	4,00
>>>>>End Processed Spectral Data<<<<<
