SpectraSuite Data File
++++++++++++++++++++++++++++++++++++
Date: Mon Jan 05 16:26:04 ICT 2026
User: Administrator
Dark Spectrum Present: Yes
Reference Spectrum Present: No
Number of Sampled Component Spectra: 1
Spectrometers: MAYP113682
Integration Time (usec): 3000000 (MAYP113682)
Spectra Averaged: 1 (MAYP113682)
Boxcar Smoothing: 0 (MAYP113682)
Correct for Electrical Dark: No (MAYP113682)
Strobe/Lamp Enabled: No (MAYP113682)
Correct for Detector Non-linearity: No (MAYP113682)
Correct for Stray Light: No (MAYP113682)
Number of Pixels in Processed Spectrum: 2068
>>>>>Begin Processed Spectral Data<<<<<
-37534,58	16,00
-37414,56	1,00
-37295,11	-3,00
-37176,24	4,00
-37057,95	324,00
-36940,22	373,00
-36823,05	385,00
-36706,45	480,00
-36590,40	380,00
-36474,90	454,00
-36359,95	461,00
-36245,55	494,00
-36131,68	474,00
-36018,35	434,00
-35905,55	370,00
-35793,29	421,00
-35681,54	409,00
-35570,32	442,00
-35459,62	497,00
-35349,43	553,00
-35239,75	483,00
-35130,58	405,00
-35021,91	412,00
-34913,74	395,00
-34806,07	475,00
-34698,89	515,00
-34592,20	462,00
-34486,00	409,00
-34380,28	420,00
-34275,04	393,00
-34170,27	414,00
-34065,98	497,00
-33962,16	499,00
-33858,81	444,00
-33755,92	360,00
-33653,49	528,00
-33551,52	488,00
-33450,01	564,00
-33348,94	482,00
-33248,33	430,00
-33148,16	464,00
-33048,43	387,00
-32949,14	551,00
-32850,29	512,00
-32751,87	344,00
-32653,89	540,00
-32556,33	545,00
-32459,20	400,00
-32362,49	481,00
-32266,19	382,00
-32170,32	423,00
-32074,86	574,00
-31979,82	468,00
-31885,18	528,00
-31790,95	536,00
-31697,12	550,00
-31603,69	479,00
-31510,67	547,00
-31418,04	493,00
-31325,80	485,00
-31233,95	406,00
-31142,49	460,00
-31051,42	466,00
-30960,73	573,00
-30870,43	549,00
-30780,50	529,00
-30690,95	386,00
-30601,77	538,00
-30512,97	508,00
-30424,53	434,00
-30336,46	430,00
-30248,76	482,00
-30161,42	552,00
-30074,44	476,00
-29987,81	507,00
-29901,55	589,00
-29815,63	485,00
-29730,07	502,00
-29644,86	509,00
-29560,00	558,00
-29475,48	522,00
-29391,30	469,00
-29307,47	520,00
-29223,97	482,00
-29140,81	519,00
-29057,99	499,00
-28975,50	370,00
-28893,34	578,00
-28811,51	463,00
-28730,00	565,00
-28648,82	480,00
-28567,97	475,00
-28487,43	479,00
-28407,21	512,00
-28327,32	453,00
-28247,73	562,00
-28168,46	462,00
-28089,50	456,00
-28010,85	363,00
-27932,51	405,00
-27854,48	491,00
-27776,75	490,00
-27699,32	491,00
-27622,19	383,00
-27545,37	472,00
-27468,84	431,00
-27392,60	462,00
-27316,66	515,00
-27241,01	491,00
-27165,66	478,00
-27090,59	385,00
-27015,81	531,00
-26941,31	524,00
-26867,10	409,00
-26793,17	557,00
-26719,52	497,00
-26646,15	434,00
-26573,06	375,00
-26500,24	443,00
-26427,70	545,00
-26355,43	484,00
-26283,43	445,00
-26211,71	437,00
-26140,25	500,00
-26069,06	499,00
-25998,13	416,00
-25927,46	427,00
-25857,06	366,00
-25786,92	442,00
-25717,04	446,00
-25647,42	534,00
-25578,05	401,00
-25508,94	418,00
-25440,09	486,00
-25371,48	513,00
-25303,13	485,00
-25235,02	532,00
-25167,17	327,00
-25099,56	523,00
-25032,19	448,00
-24965,07	380,00
-24898,20	335,00
-24831,56	344,00
-24765,17	461,00
-24699,01	384,00
-24633,10	508,00
-24567,41	462,00
-24501,97	388,00
-24436,75	422,00
-24371,77	434,00
-24307,03	406,00
-24242,51	526,00
-24178,22	425,00
-24114,16	453,00
-24050,32	495,00
-23986,71	442,00
-23923,32	397,00
-23860,16	460,00
-23797,22	486,00
-23734,50	430,00
-23672,00	325,00
-23609,71	416,00
-23547,65	439,00
-23485,80	491,00
-23424,16	380,00
-23362,74	596,00
-23301,53	437,00
-23240,54	325,00
-23179,75	366,00
-23119,17	416,00
-23058,80	388,00
-22998,64	530,00
-22938,68	486,00
-22878,93	449,00
-22819,39	354,00
-22760,04	473,00
-22700,90	407,00
-22641,96	484,00
-22583,22	379,00
-22524,68	465,00
-22466,33	509,00
-22408,19	437,00
-22350,23	399,00
-22292,48	447,00
-22234,92	430,00
-22177,55	511,00
-22120,37	524,00
-22063,38	442,00
-22006,58	413,00
-21949,98	468,00
-21893,56	329,00
-21837,33	525,00
-21781,28	493,00
-21725,42	462,00
-21669,74	542,00
-21614,25	456,00
-21558,94	452,00
-21503,81	450,00
-21448,86	521,00
-21394,10	485,00
-21339,51	378,00
-21285,10	417,00
-21230,86	435,00
-21176,81	449,00
-21122,93	459,00
-21069,22	318,00
-21015,69	442,00
-20962,33	483,00
-20909,14	453,00
-20856,13	429,00
-20803,28	503,00
-20750,61	462,00
-20698,10	424,00
-20645,76	388,00
-20593,59	509,00
-20541,59	453,00
-20489,75	539,00
-20438,07	361,00
-20386,56	490,00
-20335,22	398,00
-20284,03	495,00
-20233,01	450,00
-20182,15	366,00
-20131,45	374,00
-20080,91	320,00
-20030,52	513,00
-19980,30	434,00
-19930,23	399,00
-19880,32	506,00
-19830,56	399,00
-19780,96	506,00
-19731,52	407,00
-19682,23	518,00
-19633,09	329,00
-19584,10	368,00
-19535,26	467,00
-19486,58	493,00
-19438,04	460,00
-19389,66	516,00
-19341,42	426,00
-19293,33	416,00
-19245,39	524,00
-19197,60	527,00
-19149,95	472,00
-19102,45	398,00
-19055,09	417,00
-19007,87	344,00
-18960,80	522,00
-18913,87	421,00
-18867,09	429,00
-18820,44	497,00
-18773,94	507,00
-18727,57	473,00
-18681,35	440,00
-18635,26	582,00
-18589,31	420,00
-18543,50	465,00
-18497,83	543,00
-18452,29	490,00
-18406,89	275,00
-18361,63	482,00
-18316,50	463,00
-18271,50	469,00
-18226,63	477,00
-18181,90	477,00
-18137,30	486,00
-18092,84	431,00
-18048,50	516,00
-18004,29	472,00
-17960,22	354,00
-17916,27	394,00
-17872,45	468,00
-17828,76	566,00
-17785,20	493,00
-17741,77	474,00
-17698,46	481,00
-17655,28	410,00
-17612,22	429,00
-17569,29	442,00
-17526,48	531,00
-17483,79	509,00
-17441,23	455,00
-17398,79	493,00
-17356,48	366,00
-17314,28	531,00
-17272,21	440,00
-17230,26	455,00
-17188,42	439,00
-17146,71	511,00
-17105,12	452,00
-17063,64	466,00
-17022,28	366,00
-16981,04	392,00
-16939,92	457,00
-16898,91	604,00
-16858,02	360,00
-16817,25	482,00
-16776,59	462,00
-16736,04	441,00
-16695,61	529,00
-16655,29	460,00
-16615,09	470,00
-16574,99	401,00
-16535,01	473,00
-16495,15	437,00
-16455,39	486,00
-16415,74	405,00
-16376,21	469,00
-16336,78	437,00
-16297,46	426,00
-16258,26	403,00
-16219,16	451,00
-16180,17	444,00
-16141,28	516,00
-16102,51	465,00
-16063,84	417,00
-16025,27	431,00
-15986,82	358,00
-15948,46	495,00
-15910,22	425,00
-15872,07	411,00
-15834,04	407,00
-15796,10	477,00
-15758,27	565,00
-15720,54	420,00
-15682,91	444,00
-15645,39	493,00
-15607,97	471,00
-15570,64	402,00
-15533,42	497,00
-15496,30	445,00
-15459,28	432,00
-15422,36	515,00
-15385,54	420,00
-15348,82	465,00
-15312,19	511,00
-15275,66	411,00
-15239,23	498,00
-15202,90	433,00
-15166,67	494,00
-15130,53	549,00
-15094,48	464,00
-15058,54	386,00
-15022,68	483,00
-14986,93	385,00
-14951,26	520,00
-14915,69	500,00
-14880,22	357,00
-14844,84	467,00
-14809,55	537,00
-14774,35	476,00
-14739,25	345,00
-14704,24	439,00
-14669,32	399,00
-14634,49	354,00
-14599,75	484,00
-14565,10	436,00
-14530,55	403,00
-14496,08	515,00
-14461,70	559,00
-14427,41	449,00
-14393,21	378,00
-14359,10	397,00
-14325,07	437,00
-14291,14	397,00
-14257,29	475,00
-14223,52	497,00
-14189,85	552,00
-14156,26	421,00
-14122,76	309,00
-14089,34	439,00
-14056,01	379,00
-14022,76	350,00
-13989,60	423,00
-13956,52	543,00
-13923,53	407,00
-13890,62	406,00
-13857,79	421,00
-13825,05	407,00
-13792,39	376,00
-13759,81	416,00
-13727,31	415,00
-13694,90	470,00
-13662,57	516,00
-13630,31	515,00
-13598,14	470,00
-13566,05	463,00
-13534,05	454,00
-13502,12	467,00
-13470,27	418,00
-13438,50	566,00
-13406,80	445,00
-13375,19	448,00
-13343,66	462,00
-13312,20	489,00
-13280,83	459,00
-13249,53	525,00
-13218,30	337,00
-13187,16	446,00
-13156,09	604,00
-13125,10	356,00
-13094,18	500,00
-13063,34	549,00
-13032,58	390,00
-13001,89	520,00
-12971,28	473,00
-12940,74	424,00
-12910,27	478,00
-12879,88	455,00
-12849,57	524,00
-12819,33	490,00
-12789,16	484,00
-12759,06	420,00
-12729,04	406,00
-12699,09	368,00
-12669,21	435,00
-12639,41	409,00
-12609,68	435,00
-12580,02	397,00
-12550,43	521,00
-12520,91	406,00
-12491,46	396,00
-12462,08	469,00
-12432,77	468,00
-12403,54	412,00
-12374,37	358,00
-12345,27	528,00
-12316,24	427,00
-12287,29	511,00
-12258,40	471,00
-12229,57	456,00
-12200,82	407,00
-12172,14	454,00
-12143,52	318,00
-12114,97	421,00
-12086,49	408,00
-12058,07	492,00
-12029,73	394,00
-12001,44	548,00
-11973,23	472,00
-11945,08	395,00
-11917,00	457,00
-11888,98	397,00
-11861,03	626,00
-11833,15	444,00
-11805,32	485,00
-11777,57	478,00
-11749,88	577,00
-11722,25	419,00
-11694,69	422,00
-11667,19	467,00
-11639,75	469,00
-11612,38	340,00
-11585,07	428,00
-11557,83	535,00
-11530,65	598,00
-11503,53	353,00
-11476,47	444,00
-11449,48	386,00
-11422,54	591,00
-11395,67	486,00
-11368,86	425,00
-11342,11	432,00
-11315,43	406,00
-11288,80	498,00
-11262,23	415,00
-11235,73	423,00
-11209,28	618,00
-11182,90	507,00
-11156,57	430,00
-11130,31	527,00
-11104,10	446,00
-11077,96	431,00
-11051,87	446,00
-11025,84	455,00
-10999,87	476,00
-10973,96	439,00
-10948,11	412,00
-10922,31	499,00
-10896,58	475,00
-10870,90	480,00
-10845,28	551,00
-10819,71	432,00
-10794,20	492,00
-10768,75	394,00
-10743,36	501,00
-10718,02	402,00
-10692,74	418,00
-10667,52	465,00
-10642,35	544,00
-10617,24	484,00
-10592,18	471,00
-10567,18	384,00
-10542,23	490,00
-10517,34	443,00
-10492,51	579,00
-10467,72	422,00
-10443,00	518,00
-10418,32	495,00
-10393,70	573,00
-10369,14	382,00
-10344,63	427,00
-10320,17	496,00
-10295,77	535,00
-10271,42	470,00
-10247,12	492,00
-10222,88	547,00
-10198,68	465,00
-10174,54	619,00
-10150,46	714,00
-10126,42	615,00
-10102,44	482,00
-10078,51	524,00
-10054,63	631,00
-10030,80	604,00
-10007,03	662,00
-9983,30	526,00
-9959,63	665,00
-9936,01	628,00
-9912,44	627,00
-9888,92	649,00
-9865,44	623,00
-9842,02	636,00
-9818,65	714,00
-9795,33	628,00
-9772,06	710,00
-9748,84	599,00
-9725,67	641,00
-9702,55	745,00
-9679,47	870,00
-9656,45	950,00
-9633,47	789,00
-9610,55	851,00
-9587,67	955,00
-9564,84	1018,00
-9542,06	1066,00
-9519,32	1083,00
-9496,64	1327,00
-9474,00	1176,00
-9451,41	1281,00
-9428,87	1291,00
-9406,37	1234,00
-9383,92	1171,00
-9361,52	1116,00
-9339,17	1352,00
-9316,86	1422,00
-9294,60	1672,00
-9272,38	1683,00
-9250,21	2034,00
-9228,09	1943,00
-9206,01	1957,00
-9183,98	1834,00
-9162,00	1634,00
-9140,06	1750,00
-9118,16	1615,00
-9096,31	1740,00
-9074,51	1883,00
-9052,75	2009,00
-9031,04	1933,00
-9009,37	1730,00
-8987,74	1588,00
-8966,16	1381,00
-8944,63	1284,00
-8923,14	1357,00
-8901,69	1379,00
-8880,29	1375,00
-8858,93	1544,00
-8837,61	1749,00
-8816,34	1750,00
-8795,11	1825,00
-8773,92	1656,00
-8752,78	1611,00
-8731,68	1452,00
-8710,62	1531,00
-8689,61	1420,00
-8668,63	1525,00
-8647,70	1758,00
-8626,82	1659,00
-8605,97	1809,00
-8585,17	1646,00
-8564,41	1477,00
-8543,69	1347,00
-8523,01	1325,00
-8502,37	1407,00
-8481,78	1427,00
-8461,23	1367,00
-8440,71	1585,00
-8420,24	1651,00
-8399,81	1951,00
-8379,42	1740,00
-8359,08	1670,00
-8338,77	1438,00
-8318,50	1253,00
-8298,27	1220,00
-8278,09	1491,00
-8257,94	1495,00
-8237,83	1720,00
-8217,76	1624,00
-8197,74	1675,00
-8177,75	1701,00
-8157,80	1419,00
-8137,89	1414,00
-8118,02	1324,00
-8098,19	1309,00
-8078,40	1399,00
-8058,65	1410,00
-8038,93	1534,00
-8019,26	1494,00
-7999,62	1486,00
-7980,02	1269,00
-7960,46	1254,00
-7940,94	1194,00
-7921,46	1195,00
-7902,01	1106,00
-7882,60	1344,00
-7863,23	1271,00
-7843,90	1247,00
-7824,61	1278,00
-7805,35	1389,00
-7786,13	1342,00
-7766,95	1421,00
-7747,80	1473,00
-7728,69	1391,00
-7709,62	1318,00
-7690,59	1327,00
-7671,59	1440,00
-7652,63	1260,00
-7633,70	1407,00
-7614,81	1491,00
-7595,96	1306,00
-7577,15	1277,00
-7558,37	1166,00
-7539,62	1082,00
-7520,91	1241,00
-7502,24	1235,00
-7483,60	1277,00
-7465,00	1281,00
-7446,44	1248,00
-7427,91	993,00
-7409,41	1020,00
-7390,95	1026,00
-7372,53	916,00
-7354,14	977,00
-7335,78	982,00
-7317,46	992,00
-7299,18	956,00
-7280,92	1129,00
-7262,71	1191,00
-7244,52	1350,00
-7226,38	1181,00
-7208,26	1116,00
-7190,18	1205,00
-7172,14	1087,00
-7154,12	1121,00
-7136,15	1228,00
-7118,20	1251,00
-7100,29	1233,00
-7082,41	1312,00
-7064,57	1220,00
-7046,76	1125,00
-7028,98	944,00
-7011,24	1053,00
-6993,53	793,00
-6975,85	802,00
-6958,20	796,00
-6940,59	673,00
-6923,01	738,00
-6905,46	809,00
-6887,94	921,00
-6870,46	-963,00
-6853,01	1151,00
-6835,59	1098,00
-6818,21	1069,00
-6800,85	1009,00
-6783,53	768,00
-6766,24	669,00
-6748,98	654,00
-6731,76	634,00
-6714,56	555,00
-6697,40	579,00
-6680,26	571,00
-6663,16	748,00
-6646,09	848,00
-6629,05	1019,00
-6612,05	1010,00
-6595,07	905,00
-6578,13	1022,00
-6561,21	779,00
-6544,33	811,00
-6527,47	551,00
-6510,65	643,00
-6493,86	521,00
-6477,10	523,00
-6460,36	662,00
-6443,66	535,00
-6426,99	554,00
-6410,35	605,00
-6393,74	661,00
-6377,16	526,00
-6360,61	755,00
-6344,09	679,00
-6327,59	723,00
-6311,13	876,00
-6294,70	790,00
-6278,29	919,00
-6261,92	916,00
-6245,58	967,00
-6229,26	969,00
-6212,97	898,00
-6196,72	735,00
-6180,49	730,00
-6164,29	487,00
-6148,12	562,00
-6131,98	503,00
-6115,86	487,00
-6099,78	450,00
-6083,72	382,00
-6067,69	447,00
-6051,69	543,00
-6035,72	581,00
-6019,78	506,00
-6003,87	754,00
-5987,98	652,00
-5972,12	774,00
-5956,29	751,00
-5940,49	665,00
-5924,71	769,00
-5908,96	520,00
-5893,24	582,00
-5877,55	554,00
-5861,89	571,00
-5846,25	411,00
-5830,64	562,00
-5815,05	541,00
-5799,50	555,00
-5783,97	617,00
-5768,47	608,00
-5752,99	775,00
-5737,55	727,00
-5722,12	826,00
-5706,73	781,00
-5691,36	768,00
-5676,02	680,00
-5660,71	592,00
-5645,42	551,00
-5630,16	672,00
-5614,92	718,00
-5599,71	615,00
-5584,53	601,00
-5569,37	614,00
-5554,24	1486,00
-5539,14	601,00
-5524,06	602,00
-5509,01	680,00
-5493,98	641,00
-5478,98	665,00
-5464,00	589,00
-5449,05	572,00
-5434,13	570,00
-5419,23	432,00
-5404,36	543,00
-5389,51	617,00
-5374,69	764,00
-5359,89	762,00
-5345,12	910,00
-5330,37	912,00
-5315,65	727,00
-5300,95	822,00
-5286,28	656,00
-5271,63	515,00
-5257,01	637,00
-5242,41	543,00
-5227,84	472,00
-5213,29	615,00
-5198,76	542,00
-5184,26	469,00
-5169,79	487,00
-5155,33	556,00
-5140,91	608,00
-5126,51	573,00
-5112,13	719,00
-5097,77	615,00
-5083,44	698,00
-5069,13	490,00
-5054,85	563,00
-5040,59	647,00
-5026,36	596,00
-5012,15	796,00
-4997,96	670,00
-4983,80	679,00
-4969,66	531,00
-4955,54	555,00
-4941,44	659,00
-4927,37	620,00
-4913,33	869,00
-4899,30	836,00
-4885,30	909,00
-4871,33	755,00
-4857,37	558,00
-4843,44	406,00
-4829,53	537,00
-4815,65	609,00
-4801,79	504,00
-4787,95	687,00
-4774,13	530,00
-4760,34	502,00
-4746,56	581,00
-4732,82	540,00
-4719,09	629,00
-4705,38	830,00
-4691,70	749,00
-4678,04	851,00
-4664,41	804,00
-4650,79	719,00
-4637,20	553,00
-4623,63	538,00
-4610,08	709,00
-4596,56	596,00
-4583,05	592,00
-4569,57	583,00
-4556,11	602,00
-4542,67	543,00
-4529,25	467,00
-4515,86	660,00
-4502,49	699,00
-4489,13	770,00
-4475,80	841,00
-4462,49	582,00
-4449,21	546,00
-4435,94	560,00
-4422,70	542,00
-4409,47	513,00
-4396,27	680,00
-4383,09	587,00
-4369,93	482,00
-4356,79	395,00
-4343,67	538,00
-4330,58	628,00
-4317,50	651,00
-4304,45	609,00
-4291,41	634,00
-4278,40	603,00
-4265,41	494,00
-4252,44	562,00
-4239,49	546,00
-4226,55	658,00
-4213,65	569,00
-4200,76	639,00
-4187,89	546,00
-4175,04	432,00
-4162,21	429,00
-4149,40	490,00
-4136,61	420,00
-4123,85	480,00
-4111,10	452,00
-4098,37	549,00
-4085,66	463,00
-4072,98	505,00
-4060,31	408,00
-4047,66	565,00
-4035,04	656,00
-4022,43	436,00
-4009,84	533,00
-3997,27	411,00
-3984,72	474,00
-3972,19	496,00
-3959,69	498,00
-3947,20	495,00
-3934,73	481,00
-3922,27	378,00
-3909,84	422,00
-3897,43	517,00
-3885,04	442,00
-3872,67	480,00
-3860,31	457,00
-3847,98	493,00
-3835,66	467,00
-3823,36	557,00
-3811,09	369,00
-3798,83	569,00
-3786,59	494,00
-3774,37	485,00
-3762,17	425,00
-3749,98	531,00
-3737,82	503,00
-3725,67	527,00
-3713,55	410,00
-3701,44	574,00
-3689,35	448,00
-3677,28	521,00
-3665,22	414,00
-3653,19	412,00
-3641,17	409,00
-3629,18	564,00
-3617,20	496,00
-3605,24	502,00
-3593,30	521,00
-3581,37	513,00
-3569,47	413,00
-3557,58	427,00
-3545,71	507,00
-3533,86	526,00
-3522,02	426,00
-3510,21	439,00
-3498,41	550,00
-3486,63	429,00
-3474,87	504,00
-3463,12	499,00
-3451,40	451,00
-3439,69	389,00
-3428,00	413,00
-3416,33	465,00
-3404,67	436,00
-3393,03	461,00
-3381,41	479,00
-3369,81	431,00
-3358,22	548,00
-3346,66	516,00
-3335,10	472,00
-3323,57	392,00
-3312,06	493,00
-3300,56	486,00
-3289,08	458,00
-3277,61	400,00
-3266,16	504,00
-3254,73	396,00
-3243,32	496,00
-3231,92	417,00
-3220,55	538,00
-3209,18	606,00
-3197,84	378,00
-3186,51	463,00
-3175,20	375,00
-3163,90	439,00
-3152,63	571,00
-3141,36	400,00
-3130,12	442,00
-3118,89	553,00
-3107,68	423,00
-3096,49	536,00
-3085,31	435,00
-3074,15	493,00
-3063,00	535,00
-3051,87	500,00
-3040,76	416,00
-3029,67	621,00
-3018,59	583,00
-3007,52	549,00
-2996,48	463,00
-2985,44	486,00
-2974,43	479,00
-2963,43	474,00
-2952,45	548,00
-2941,48	474,00
-2930,53	538,00
-2919,60	379,00
-2908,68	464,00
-2897,78	433,00
-2886,89	521,00
-2876,02	483,00
-2865,17	396,00
-2854,33	383,00
-2843,50	436,00
-2832,70	465,00
-2821,90	418,00
-2811,13	584,00
-2800,37	521,00
-2789,62	341,00
-2778,89	428,00
-2768,18	562,00
-2757,48	440,00
-2746,80	484,00
-2736,13	447,00
-2725,48	563,00
-2714,84	393,00
-2704,22	553,00
-2693,61	438,00
-2683,02	443,00
-2672,45	540,00
-2661,89	437,00
-2651,34	546,00
-2640,81	520,00
-2630,30	535,00
-2619,80	483,00
-2609,31	575,00
-2598,84	426,00
-2588,39	502,00
-2577,95	429,00
-2567,52	454,00
-2557,11	467,00
-2546,71	460,00
-2536,33	531,00
-2525,97	432,00
-2515,62	540,00
-2505,28	531,00
-2494,96	481,00
-2484,65	417,00
-2474,36	633,00
-2464,08	375,00
-2453,82	592,00
-2443,57	457,00
-2433,33	478,00
-2423,11	573,00
-2412,91	547,00
-2402,72	368,00
-2392,54	457,00
-2382,38	388,00
-2372,23	564,00
-2362,09	1040,00
-2351,97	405,00
-2341,87	362,00
-2331,78	524,00
-2321,70	508,00
-2311,64	458,00
-2301,59	509,00
-2291,55	471,00
-2281,53	493,00
-2271,53	390,00
-2261,53	560,00
-2251,55	542,00
-2241,59	455,00
-2231,64	414,00
-2221,70	498,00
-2211,78	446,00
-2201,87	482,00
-2191,97	497,00
-2182,09	424,00
-2172,22	434,00
-2162,37	446,00
-2152,53	354,00
-2142,70	408,00
-2132,89	485,00
-2123,09	467,00
-2113,30	422,00
-2103,53	448,00
-2093,77	514,00
-2084,02	499,00
-2074,29	435,00
-2064,57	506,00
-2054,86	483,00
-2045,17	576,00
-2035,49	481,00
-2025,82	410,00
-2016,17	404,00
-2006,53	387,00
-1996,91	475,00
-1987,29	414,00
-1977,69	483,00
-1968,11	490,00
-1958,53	402,00
-1948,97	426,00
-1939,42	444,00
-1929,89	513,00
-1920,37	445,00
-1910,86	394,00
-1901,36	407,00
-1891,88	525,00
-1882,41	466,00
-1872,95	482,00
-1863,51	483,00
-1854,08	514,00
-1844,66	480,00
-1835,26	454,00
-1825,86	572,00
-1816,48	421,00
-1807,11	516,00
-1797,76	460,00
-1788,42	494,00
-1779,09	449,00
-1769,77	410,00
-1760,47	628,00
-1751,17	412,00
-1741,89	441,00
-1732,63	489,00
-1723,37	572,00
-1714,13	570,00
-1704,90	483,00
-1695,68	620,00
-1686,48	380,00
-1677,29	418,00
-1668,11	541,00
-1658,94	448,00
-1649,78	484,00
-1640,64	583,00
-1631,51	450,00
-1622,39	599,00
-1613,28	461,00
-1604,19	524,00
-1595,10	470,00
-1586,03	451,00
-1576,97	458,00
-1567,93	495,00
-1558,89	514,00
-1549,87	518,00
-1540,86	438,00
-1531,86	442,00
-1522,87	429,00
-1513,90	487,00
-1504,93	543,00
-1495,98	538,00
-1487,04	510,00
-1478,12	406,00
-1469,20	450,00
-1460,30	488,00
-1451,40	581,00
-1442,52	488,00
-1433,65	583,00
-1424,80	456,00
-1415,95	399,00
-1407,12	619,00
-1398,30	523,00
-1389,48	450,00
-1380,69	368,00
-1371,90	439,00
-1363,12	497,00
-1354,36	529,00
-1345,60	472,00
-1336,86	445,00
-1328,13	607,00
-1319,41	539,00
-1310,70	476,00
-1302,01	429,00
-1293,32	433,00
-1284,65	474,00
-1275,99	510,00
-1267,33	574,00
-1258,69	541,00
-1250,06	524,00
-1241,45	364,00
-1232,84	696,00
-1224,25	418,00
-1215,66	499,00
-1207,09	499,00
-1198,53	526,00
-1189,97	492,00
-1181,43	425,00
-1172,91	446,00
-1164,39	574,00
-1155,88	437,00
-1147,38	449,00
-1138,90	486,00
-1130,43	418,00
-1121,96	447,00
-1113,51	526,00
-1105,07	516,00
-1096,64	497,00
-1088,22	476,00
-1079,81	503,00
-1071,41	487,00
-1063,02	471,00
-1054,65	460,00
-1046,28	465,00
-1037,92	507,00
-1029,58	519,00
-1021,24	591,00
-1012,92	659,00
-1004,61	524,00
-996,30	625,00
-988,01	401,00
-979,73	540,00
-971,46	546,00
-963,20	438,00
-954,95	385,00
-946,71	481,00
-938,48	539,00
-930,26	538,00
-922,06	486,00
-913,86	447,00
-905,67	385,00
-897,49	541,00
-889,33	346,00
-881,17	560,00
-873,02	534,00
-864,89	417,00
-856,76	410,00
-848,65	468,00
-840,54	543,00
-832,45	388,00
-824,36	448,00
-816,29	528,00
-808,22	509,00
-800,17	523,00
-792,12	423,00
-784,09	496,00
-776,06	463,00
-768,05	451,00
-760,04	521,00
-752,05	450,00
-744,07	424,00
-736,09	514,00
-728,13	415,00
-720,17	429,00
-712,23	376,00
-704,29	436,00
-696,37	405,00
-688,45	590,00
-680,55	560,00
-672,65	456,00
-664,77	481,00
-656,89	502,00
-649,03	450,00
-641,17	510,00
-633,32	479,00
-625,49	501,00
-617,66	457,00
-609,84	524,00
-602,03	463,00
-594,23	471,00
-586,45	504,00
-578,67	451,00
-570,90	457,00
-563,14	425,00
-555,39	574,00
-547,65	480,00
-539,91	483,00
-532,19	486,00
-524,48	506,00
-516,78	433,00
-509,08	544,00
-501,40	412,00
-493,72	489,00
-486,06	437,00
-478,40	528,00
-470,76	345,00
-463,12	535,00
-455,49	509,00
-447,87	470,00
-440,26	426,00
-432,66	470,00
-425,07	496,00
-417,49	575,00
-409,92	385,00
-402,35	422,00
-394,80	479,00
-387,25	528,00
-379,72	540,00
-372,19	578,00
-364,67	594,00
-357,17	391,00
-349,67	549,00
-342,18	472,00
-334,69	432,00
-327,22	546,00
-319,76	536,00
-312,30	454,00
-304,86	496,00
-297,42	535,00
-290,00	449,00
-282,58	521,00
-275,17	508,00
-267,77	553,00
-260,37	439,00
-252,99	562,00
-245,62	582,00
-238,25	564,00
-230,90	545,00
-223,55	599,00
-216,21	625,00
-208,88	673,00
-201,56	550,00
-194,25	600,00
-186,94	679,00
-179,65	651,00
-172,36	655,00
-165,08	683,00
-157,81	686,00
-150,55	886,00
-143,30	763,00
-136,06	767,00
-128,82	900,00
-121,60	837,00
-114,38	938,00
-107,17	1164,00
-99,97	1131,00
-92,78	1247,00
-85,60	1280,00
-78,42	1463,00
-71,25	1709,00
-64,10	1829,00
-56,95	2006,00
-49,81	2461,00
-42,67	2894,00
-35,55	3316,00
-28,43	4409,00
-21,33	6984,00
-14,23	21999,00
-7,14	57498,00
-0,05	57284,00
7,02	57012,00
14,09	57319,00
21,14	19419,00
28,19	8204,00
35,23	5428,00
42,27	4421,00
49,29	3667,00
56,31	3008,00
63,32	2756,00
70,32	2280,00
77,31	2061,00
84,29	1771,00
91,27	1650,00
98,23	1657,00
105,19	1526,00
112,14	1743,00
119,09	2559,00
126,02	4127,00
132,95	5060,00
139,87	5309,00
146,78	5452,00
153,68	5372,00
160,58	5353,00
167,46	5273,00
174,34	5379,00
181,21	5384,00
188,08	5291,00
194,93	5357,00
201,78	5338,00
208,62	5395,00
215,45	5384,00
222,27	5381,00
229,09	5426,00
235,90	5380,00
242,70	5357,00
249,49	5399,00
256,27	5274,00
263,05	5309,00
269,82	5364,00
276,58	5397,00
283,33	5326,00
290,08	5293,00
296,82	5166,00
303,55	5062,00
310,27	4999,00
316,98	5099,00
323,69	5046,00
330,39	4959,00
337,08	5123,00
343,76	5085,00
350,44	4949,00
357,11	5046,00
363,77	5088,00
370,42	4935,00
377,07	5023,00
383,71	5053,00
390,34	4966,00
396,96	5035,00
403,58	5031,00
410,19	5239,00
416,79	5096,00
423,38	5072,00
429,97	4991,00
436,55	4855,00
443,12	4832,00
449,68	4862,00
456,24	4708,00
462,79	4792,00
469,33	4682,00
475,86	4741,00
482,39	4789,00
488,91	4835,00
495,42	4682,00
501,93	4720,00
508,42	4571,00
514,91	4568,00
521,40	4660,00
527,87	4475,00
534,34	4431,00
540,80	4504,00
547,25	4516,00
553,70	4508,00
560,14	4615,00
566,57	4486,00
573,00	4515,00
579,41	4564,00
585,83	4513,00
592,23	4428,00
598,62	4501,00
605,01	4413,00
611,40	4419,00
617,77	4502,00
624,14	4363,00
630,50	4334,00
636,85	4434,00
643,20	4389,00
649,54	4258,00
655,87	4361,00
662,20	4302,00
668,52	4344,00
674,83	4243,00
681,13	4123,00
687,43	4264,00
693,72	4145,00
700,00	4154,00
706,28	4104,00
712,55	4139,00
718,81	4147,00
725,07	4044,00
731,32	4168,00
737,56	4228,00
743,79	4114,00
750,02	4208,00
756,24	4016,00
762,46	4077,00
768,67	4161,00
774,87	4050,00
781,06	4072,00
787,25	4091,00
793,43	4082,00
799,60	4035,00
805,77	4176,00
811,93	4055,00
818,08	4067,00
824,23	3977,00
830,37	4236,00
836,50	3982,00
842,63	3931,00
848,75	4033,00
854,87	3887,00
860,97	3968,00
867,07	3911,00
873,17	3947,00
879,25	3874,00
885,33	3900,00
891,41	4021,00
897,47	3840,00
903,53	3825,00
909,59	3931,00
915,63	3792,00
921,67	3855,00
927,71	3891,00
933,74	3789,00
939,76	3677,00
945,77	3835,00
951,78	3921,00
957,78	3711,00
963,78	3775,00
969,77	3835,00
975,75	3672,00
981,72	3632,00
987,69	4689,00
993,66	3755,00
999,61	3810,00
1005,56	3760,00
1011,51	3615,00
1017,44	3754,00
1023,37	3705,00
1029,30	3686,00
1035,22	3740,00
1041,13	3781,00
1047,03	3737,00
1052,93	3782,00
1058,83	3926,00
1064,71	4084,00
1070,59	3977,00
1076,47	3704,00
1082,33	3693,00
1088,20	3718,00
1094,05	3567,00
1099,90	3510,00
1105,74	3642,00
1111,58	3657,00
1117,41	3613,00
1123,23	3599,00
1129,05	3790,00
1134,86	3840,00
1140,67	3688,00
1146,47	3591,00
1152,26	3627,00
1158,05	3535,00
1163,83	3663,00
1169,60	3560,00
1175,37	3647,00
1181,13	3527,00
1186,89	3539,00
1192,64	3583,00
1198,38	3866,00
1204,12	3552,00
1209,85	3564,00
1215,58	3504,00
1221,30	3591,00
1227,02	3571,00
1232,72	3551,00
1238,43	3576,00
1244,12	3522,00
1249,81	3676,00
1255,50	3678,00
1261,17	3626,00
1266,85	3579,00
1272,51	3572,00
1278,17	3748,00
1283,83	3692,00
1289,47	3737,00
1295,12	4013,00
1300,75	3882,00
1306,38	3763,00
1312,01	3712,00
1317,63	3549,00
1323,24	3563,00
1328,85	3612,00
1334,45	3545,00
1340,04	3527,00
1345,63	3658,00
1351,22	3782,00
1356,80	3799,00
1362,37	3771,00
1367,93	3758,00
1373,49	3708,00
1379,05	3744,00
1384,60	3644,00
1390,14	3748,00
1395,68	3715,00
1401,21	3654,00
1406,74	3675,00
1412,26	3795,00
1417,77	3933,00
1423,28	3746,00
1428,78	3870,00
1434,28	4049,00
1439,77	3933,00
1445,26	4007,00
1450,74	4112,00
1456,22	3855,00
1461,68	3875,00
1467,15	3821,00
1472,61	3763,00
1478,06	3782,00
1483,51	3636,00
1488,95	3590,00
1494,38	3549,00
1499,81	3391,00
1505,24	3436,00
1510,65	3404,00
1516,07	3469,00
1521,48	3450,00
1526,88	3367,00
1532,27	3398,00
1537,67	3401,00
1543,05	3363,00
1548,43	3327,00
1553,81	3448,00
1559,18	3260,00
1564,54	3326,00
1569,90	3354,00
1575,25	3185,00
1580,60	3257,00
1585,94	3222,00
1591,28	3259,00
1596,61	3202,00
1601,93	3171,00
1607,25	3295,00
1612,57	3248,00
1617,88	3265,00
1623,18	3354,00
1628,48	3180,00
1633,77	3138,00
1639,06	3281,00
1644,34	3087,00
1649,62	3053,00
1654,89	3098,00
1660,16	3052,00
1665,42	3282,00
1670,67	3046,00
1675,92	2981,00
1681,17	3005,00
1686,41	3052,00
1691,64	3046,00
1696,87	3052,00
1702,10	2989,00
1707,32	3008,00
1712,53	2961,00
1717,74	2947,00
1722,94	3074,00
1728,14	2851,00
1733,33	2872,00
1738,52	2858,00
1743,70	2872,00
1748,88	2868,00
1754,05	2853,00
1759,22	2774,00
1764,38	3028,00
1769,53	2759,00
1774,69	2875,00
1779,83	2678,00
1784,97	2830,00
1790,11	2763,00
1795,24	2711,00
1800,36	2704,00
1805,48	2660,00
1810,60	2842,00
1815,71	2723,00
1820,82	2702,00
1825,92	2756,00
1831,01	2741,00
1836,10	2688,00
1841,19	2706,00
1846,26	2553,00
1851,34	2771,00
1856,41	2727,00
1861,47	2634,00
1866,53	2758,00
1871,59	2552,00
1876,64	2595,00
1881,68	2567,00
1886,72	2525,00
1891,76	2532,00
1896,79	2550,00
1901,81	2544,00
1906,83	2613,00
1911,85	2388,00
1916,86	2445,00
1921,86	2370,00
1926,86	2387,00
1931,86	2528,00
1936,85	2312,00
1941,83	2347,00
1946,81	2333,00
1951,79	2301,00
1956,76	2342,00
1961,72	2270,00
1966,68	2368,00
1971,64	2374,00
1976,59	2429,00
1981,54	2276,00
1986,48	2362,00
1991,42	2210,00
1996,35	2463,00
2001,27	2303,00
2006,20	2210,00
2011,11	2346,00
2016,03	2274,00
2020,93	2192,00
2025,84	2180,00
2030,73	2206,00
2035,63	2137,00
2040,52	2205,00
2045,40	2215,00
2050,28	2229,00
2055,15	2174,00
2060,02	2030,00
2064,89	2320,00
2069,75	2187,00
2074,60	2264,00
2079,46	2055,00
2084,30	2010,00
2089,14	2080,00
2093,98	2221,00
2098,81	2159,00
2103,64	2060,00
2108,46	2121,00
2113,28	2299,00
2118,09	2127,00
2122,90	2102,00
2127,70	2001,00
2132,50	2115,00
2137,30	2012,00
2142,09	1890,00
2146,87	2011,00
2151,66	2112,00
2156,43	1977,00
2161,20	2011,00
2165,97	2039,00
2170,73	1996,00
2175,49	2040,00
2180,24	2053,00
2184,99	2054,00
2189,74	2092,00
2194,48	2130,00
2199,21	1999,00
2203,94	1968,00
2208,67	1902,00
2213,39	1921,00
2218,11	1968,00
2222,82	1784,00
2227,53	1980,00
2232,23	1945,00
2236,93	1917,00
2241,63	1833,00
2246,32	1910,00
2251,00	1831,00
2255,68	1796,00
2260,36	1825,00
2265,03	1939,00
2269,70	1920,00
2274,36	1850,00
2279,02	1949,00
2283,68	1851,00
2288,33	1868,00
2292,97	1869,00
2297,61	1767,00
2302,25	1783,00
2306,88	1734,00
2311,51	1694,00
2316,14	1704,00
2320,75	1742,00
2325,37	1675,00
2329,98	1800,00
2334,59	1881,00
2339,19	1655,00
2343,79	1596,00
2348,38	1734,00
2352,97	1663,00
2357,55	1666,00
2362,13	1648,00
2366,71	1583,00
2371,28	1743,00
2375,85	1667,00
2380,41	1712,00
2384,97	1663,00
2389,52	1629,00
2394,07	1671,00
2398,62	1563,00
2403,16	1624,00
2407,70	1475,00
2412,23	1508,00
2416,76	1743,00
2421,29	1614,00
2425,81	1648,00
2430,32	1607,00
2434,84	1490,00
2439,34	1457,00
2443,85	1664,00
2448,35	1518,00
2452,84	1492,00
2457,33	1613,00
2461,82	1449,00
2466,30	1446,00
2470,78	1549,00
2475,25	1515,00
2479,72	1502,00
2484,19	1539,00
2488,65	1479,00
2493,11	1452,00
2497,56	1574,00
2502,01	1474,00
2506,46	1564,00
2510,90	1427,00
2515,34	1426,00
2519,77	1450,00
2524,20	1402,00
2528,62	1442,00
2533,04	1417,00
2537,46	1364,00
2541,87	1407,00
2546,28	1373,00
2550,68	1459,00
2555,08	1382,00
2559,48	1387,00
2563,87	1236,00
2568,26	1297,00
2572,64	1362,00
2577,02	1347,00
2581,40	1225,00
2585,77	1352,00
2590,14	1325,00
2594,50	1275,00
2598,86	1246,00
2603,22	1178,00
2607,57	1248,00
2611,92	1263,00
2616,26	1355,00
2620,60	1227,00
2624,94	1190,00
2629,27	1217,00
2633,60	1184,00
2637,92	1348,00
2642,24	1241,00
2646,56	1254,00
2650,87	1131,00
2655,18	1349,00
2659,48	1202,00
2663,78	1157,00
2668,08	1124,00
2672,37	1165,00
2676,66	1189,00
2680,95	1085,00
2685,23	1293,00
2689,50	1139,00
2693,78	1147,00
2698,05	1217,00
2702,31	1203,00
2706,57	1223,00
2710,83	1255,00
2715,08	1269,00
2719,33	1234,00
2723,58	1175,00
2727,82	1291,00
2732,06	1156,00
2736,29	1156,00
2740,53	1176,00
2744,75	1199,00
2748,97	1067,00
2753,19	1139,00
2757,41	1171,00
2761,62	1183,00
2765,83	1162,00
2770,03	1118,00
2774,23	1166,00
2778,43	1030,00
2782,62	1022,00
2786,81	1140,00
2791,00	1078,00
2795,18	1088,00
2799,35	1182,00
2803,53	1113,00
2807,70	1080,00
2811,86	1100,00
2816,03	1123,00
2820,19	1128,00
2824,34	1048,00
2828,49	1181,00
2832,64	1176,00
2836,78	1264,00
2840,92	1229,00
2845,06	1376,00
2849,19	1526,00
2853,32	1365,00
2857,45	1397,00
2861,57	1480,00
2865,69	1462,00
2869,80	1303,00
2873,91	1367,00
2878,02	1447,00
2882,12	1410,00
2886,22	1502,00
2890,32	1442,00
2894,41	1411,00
2898,50	1364,00
2902,58	1417,00
2906,67	1349,00
2910,74	1201,00
2914,82	1216,00
2918,89	1331,00
2922,96	1206,00
2927,02	1107,00
2931,08	1087,00
2935,13	1010,00
2939,19	1008,00
2943,24	1094,00
2947,28	1116,00
2951,32	987,00
2955,36	925,00
2959,40	1084,00
2963,43	970,00
2967,46	1020,00
2971,48	1003,00
2975,50	863,00
2979,52	928,00
2983,53	915,00
2987,54	814,00
2991,55	929,00
2995,55	914,00
2999,55	904,00
3003,54	840,00
3007,54	870,00
3011,53	916,00
3015,51	835,00
3019,49	867,00
3023,47	791,00
3027,45	818,00
3031,42	881,00
3035,39	820,00
3039,35	843,00
3043,31	895,00
3047,27	823,00
3051,22	859,00
3055,17	747,00
3059,12	849,00
3063,06	850,00
3067,00	664,00
3070,94	735,00
3074,87	895,00
3078,80	791,00
3082,73	724,00
3086,65	737,00
3090,57	779,00
3094,49	762,00
3098,40	746,00
3102,31	698,00
3106,22	737,00
3110,12	713,00
3114,02	702,00
3117,92	753,00
3121,81	770,00
3125,70	797,00
3129,58	729,00
3133,47	673,00
3137,34	758,00
3141,22	826,00
3145,09	744,00
3148,96	750,00
3152,83	795,00
3156,69	728,00
3160,55	642,00
3164,40	825,00
3168,26	684,00
3172,10	748,00
3175,95	764,00
3179,79	747,00
3183,63	686,00
3187,47	665,00
3191,30	752,00
3195,13	630,00
3198,95	623,00
3202,78	711,00
3206,60	688,00
3210,41	673,00
3214,23	598,00
3218,03	660,00
3221,84	641,00
3225,64	640,00
3229,44	563,00
3233,24	666,00
3237,03	629,00
3240,82	565,00
3244,61	592,00
3248,39	646,00
3252,17	653,00
3255,95	743,00
3259,72	639,00
3263,49	728,00
3267,26	616,00
3271,03	744,00
3274,79	636,00
3278,54	696,00
3282,30	592,00
3286,05	595,00
3289,80	658,00
3293,54	571,00
3297,29	528,00
3301,02	606,00
3304,76	621,00
3308,49	589,00
3312,22	485,00
3315,95	603,00
3319,67	578,00
3323,39	645,00
3327,10	678,00
3330,82	569,00
3334,53	617,00
3338,24	608,00
3341,94	606,00
3345,64	633,00
3349,34	586,00
3353,03	644,00
3356,72	506,00
3360,41	614,00
3364,10	491,00
3367,78	613,00
3371,46	549,00
3375,13	625,00
3378,81	619,00
3382,48	516,00
3386,14	542,00
3389,81	716,00
3393,47	576,00
3397,12	655,00
3400,78	572,00
3404,43	548,00
3408,08	602,00
3411,72	517,00
3415,36	491,00
3419,00	568,00
3422,64	594,00
3426,27	597,00
3429,90	596,00
3433,53	535,00
3437,15	551,00
3440,77	454,00
3444,39	600,00
3448,00	564,00
3451,62	509,00
3455,22	620,00
3458,83	501,00
3462,43	532,00
3466,03	527,00
3469,63	496,00
3473,22	486,00
3476,81	373,00
3480,40	535,00
3483,99	527,00
3487,57	433,00
3491,15	539,00
3494,72	637,00
3498,29	609,00
3501,86	464,00
3505,43	493,00
3508,99	467,00
3512,56	442,00
3516,11	615,00
3519,67	495,00
3523,22	473,00
3526,77	434,00
3530,32	621,00
3533,86	549,00
3537,40	579,00
3540,94	496,00
3544,47	530,00
3548,00	416,00
3551,53	565,00
3555,06	456,00
3558,58	485,00
3562,10	520,00
3565,62	467,00
3569,13	432,00
3572,64	596,00
3576,15	418,00
3579,66	474,00
3583,16	468,00
3586,66	532,00
3590,16	417,00
3593,65	467,00
3597,14	472,00
3600,63	488,00
3604,11	444,00
3607,60	469,00
3611,08	459,00
3614,55	493,00
3618,03	387,00
3621,50	421,00
3624,97	370,00
3628,43	437,00
3631,90	498,00
3635,36	348,00
3638,81	417,00
3642,27	392,00
3645,72	495,00
3649,17	407,00
3652,61	535,00
3656,06	379,00
3659,50	469,00
3662,93	486,00
3666,37	440,00
3669,80	630,00
3673,23	422,00
3676,65	409,00
3680,08	467,00
3683,50	422,00
3686,92	469,00
3690,33	417,00
3693,74	479,00
3697,15	389,00
3700,56	518,00
3703,96	476,00
3707,36	385,00
3710,76	440,00
3714,16	357,00
3717,55	405,00
3720,94	352,00
3724,33	379,00
3727,71	452,00
3731,10	455,00
3734,48	409,00
3737,85	319,00
3741,23	343,00
3744,60	395,00
3747,97	346,00
3751,33	539,00
3754,69	401,00
3758,05	433,00
3761,41	361,00
3764,77	369,00
3768,12	422,00
3771,47	359,00
3774,82	386,00
3778,16	-8,00
3781,50	6,00
3784,84	4,00
3788,18	8,00
>>>>>End Processed Spectral Data<<<<<
