SpectraSuite Data File
++++++++++++++++++++++++++++++++++++
Date: Mon Jan 05 16:25:52 ICT 2026
User: Administrator
Dark Spectrum Present: Yes
Reference Spectrum Present: No
Number of Sampled Component Spectra: 1
Spectrometers: MAYP113682
Integration Time (usec): 3000000 (MAYP113682)
Spectra Averaged: 1 (MAYP113682)
Boxcar Smoothing: 0 (MAYP113682)
Correct for Electrical Dark: No (MAYP113682)
Strobe/Lamp Enabled: No (MAYP113682)
Correct for Detector Non-linearity: No (MAYP113682)
Correct for Stray Light: No (MAYP113682)
Number of Pixels in Processed Spectrum: 2068
>>>>>Begin Processed Spectral Data<<<<<
-37534,58	10,00
-37414,56	11,00
-37295,11	4,00
-37176,24	-1,00
-37057,95	294,00
-36940,22	364,00
-36823,05	373,00
-36706,45	364,00
-36590,40	372,00
-36474,90	406,00
-36359,95	460,00
-36245,55	422,00
-36131,68	391,00
-36018,35	404,00
-35905,55	393,00
-35793,29	441,00
-35681,54	348,00
-35570,32	432,00
-35459,62	419,00
-35349,43	544,00
-35239,75	503,00
-35130,58	405,00
-35021,91	452,00
-34913,74	502,00
-34806,07	425,00
-34698,89	448,00
-34592,20	445,00
-34486,00	387,00
-34380,28	493,00
-34275,04	364,00
-34170,27	356,00
-34065,98	478,00
-33962,16	520,00
-33858,81	473,00
-33755,92	405,00
-33653,49	500,00
-33551,52	531,00
-33450,01	446,00
-33348,94	425,00
-33248,33	377,00
-33148,16	472,00
-33048,43	507,00
-32949,14	572,00
-32850,29	506,00
-32751,87	450,00
-32653,89	553,00
-32556,33	528,00
-32459,20	399,00
-32362,49	467,00
-32266,19	539,00
-32170,32	412,00
-32074,86	491,00
-31979,82	438,00
-31885,18	538,00
-31790,95	527,00
-31697,12	474,00
-31603,69	475,00
-31510,67	533,00
-31418,04	541,00
-31325,80	353,00
-31233,95	397,00
-31142,49	457,00
-31051,42	378,00
-30960,73	525,00
-30870,43	538,00
-30780,50	540,00
-30690,95	415,00
-30601,77	562,00
-30512,97	472,00
-30424,53	503,00
-30336,46	400,00
-30248,76	396,00
-30161,42	509,00
-30074,44	485,00
-29987,81	498,00
-29901,55	628,00
-29815,63	446,00
-29730,07	382,00
-29644,86	486,00
-29560,00	547,00
-29475,48	500,00
-29391,30	564,00
-29307,47	448,00
-29223,97	490,00
-29140,81	547,00
-29057,99	535,00
-28975,50	446,00
-28893,34	467,00
-28811,51	450,00
-28730,00	525,00
-28648,82	434,00
-28567,97	457,00
-28487,43	463,00
-28407,21	509,00
-28327,32	448,00
-28247,73	563,00
-28168,46	442,00
-28089,50	463,00
-28010,85	410,00
-27932,51	459,00
-27854,48	359,00
-27776,75	435,00
-27699,32	499,00
-27622,19	485,00
-27545,37	555,00
-27468,84	472,00
-27392,60	439,00
-27316,66	439,00
-27241,01	432,00
-27165,66	378,00
-27090,59	380,00
-27015,81	559,00
-26941,31	517,00
-26867,10	367,00
-26793,17	575,00
-26719,52	485,00
-26646,15	371,00
-26573,06	391,00
-26500,24	446,00
-26427,70	466,00
-26355,43	422,00
-26283,43	448,00
-26211,71	515,00
-26140,25	502,00
-26069,06	440,00
-25998,13	390,00
-25927,46	342,00
-25857,06	397,00
-25786,92	460,00
-25717,04	408,00
-25647,42	489,00
-25578,05	441,00
-25508,94	375,00
-25440,09	440,00
-25371,48	496,00
-25303,13	565,00
-25235,02	475,00
-25167,17	443,00
-25099,56	438,00
-25032,19	474,00
-24965,07	385,00
-24898,20	383,00
-24831,56	336,00
-24765,17	484,00
-24699,01	391,00
-24633,10	536,00
-24567,41	540,00
-24501,97	448,00
-24436,75	490,00
-24371,77	376,00
-24307,03	411,00
-24242,51	487,00
-24178,22	345,00
-24114,16	401,00
-24050,32	435,00
-23986,71	489,00
-23923,32	402,00
-23860,16	481,00
-23797,22	421,00
-23734,50	464,00
-23672,00	407,00
-23609,71	476,00
-23547,65	442,00
-23485,80	512,00
-23424,16	311,00
-23362,74	555,00
-23301,53	452,00
-23240,54	439,00
-23179,75	418,00
-23119,17	471,00
-23058,80	411,00
-22998,64	553,00
-22938,68	423,00
-22878,93	426,00
-22819,39	379,00
-22760,04	484,00
-22700,90	437,00
-22641,96	399,00
-22583,22	442,00
-22524,68	424,00
-22466,33	405,00
-22408,19	504,00
-22350,23	417,00
-22292,48	395,00
-22234,92	500,00
-22177,55	554,00
-22120,37	515,00
-22063,38	339,00
-22006,58	458,00
-21949,98	497,00
-21893,56	342,00
-21837,33	535,00
-21781,28	379,00
-21725,42	438,00
-21669,74	579,00
-21614,25	507,00
-21558,94	440,00
-21503,81	504,00
-21448,86	490,00
-21394,10	420,00
-21339,51	431,00
-21285,10	353,00
-21230,86	404,00
-21176,81	463,00
-21122,93	401,00
-21069,22	320,00
-21015,69	491,00
-20962,33	525,00
-20909,14	475,00
-20856,13	389,00
-20803,28	482,00
-20750,61	455,00
-20698,10	403,00
-20645,76	415,00
-20593,59	527,00
-20541,59	409,00
-20489,75	502,00
-20438,07	350,00
-20386,56	410,00
-20335,22	407,00
-20284,03	456,00
-20233,01	409,00
-20182,15	353,00
-20131,45	497,00
-20080,91	353,00
-20030,52	523,00
-19980,30	422,00
-19930,23	364,00
-19880,32	474,00
-19830,56	451,00
-19780,96	386,00
-19731,52	352,00
-19682,23	483,00
-19633,09	409,00
-19584,10	424,00
-19535,26	495,00
-19486,58	458,00
-19438,04	420,00
-19389,66	500,00
-19341,42	381,00
-19293,33	477,00
-19245,39	501,00
-19197,60	516,00
-19149,95	572,00
-19102,45	466,00
-19055,09	351,00
-19007,87	475,00
-18960,80	481,00
-18913,87	450,00
-18867,09	369,00
-18820,44	488,00
-18773,94	476,00
-18727,57	465,00
-18681,35	391,00
-18635,26	486,00
-18589,31	420,00
-18543,50	415,00
-18497,83	424,00
-18452,29	480,00
-18406,89	331,00
-18361,63	566,00
-18316,50	471,00
-18271,50	420,00
-18226,63	526,00
-18181,90	446,00
-18137,30	526,00
-18092,84	428,00
-18048,50	496,00
-18004,29	399,00
-17960,22	339,00
-17916,27	421,00
-17872,45	490,00
-17828,76	582,00
-17785,20	417,00
-17741,77	446,00
-17698,46	449,00
-17655,28	414,00
-17612,22	425,00
-17569,29	453,00
-17526,48	488,00
-17483,79	520,00
-17441,23	436,00
-17398,79	468,00
-17356,48	365,00
-17314,28	580,00
-17272,21	456,00
-17230,26	459,00
-17188,42	407,00
-17146,71	436,00
-17105,12	401,00
-17063,64	415,00
-17022,28	429,00
-16981,04	439,00
-16939,92	496,00
-16898,91	524,00
-16858,02	368,00
-16817,25	463,00
-16776,59	419,00
-16736,04	449,00
-16695,61	468,00
-16655,29	433,00
-16615,09	374,00
-16574,99	464,00
-16535,01	467,00
-16495,15	469,00
-16455,39	469,00
-16415,74	374,00
-16376,21	427,00
-16336,78	417,00
-16297,46	432,00
-16258,26	403,00
-16219,16	409,00
-16180,17	493,00
-16141,28	541,00
-16102,51	477,00
-16063,84	403,00
-16025,27	496,00
-15986,82	423,00
-15948,46	419,00
-15910,22	419,00
-15872,07	400,00
-15834,04	490,00
-15796,10	397,00
-15758,27	639,00
-15720,54	413,00
-15682,91	489,00
-15645,39	524,00
-15607,97	480,00
-15570,64	411,00
-15533,42	487,00
-15496,30	423,00
-15459,28	472,00
-15422,36	416,00
-15385,54	372,00
-15348,82	524,00
-15312,19	518,00
-15275,66	356,00
-15239,23	430,00
-15202,90	435,00
-15166,67	488,00
-15130,53	533,00
-15094,48	452,00
-15058,54	427,00
-15022,68	441,00
-14986,93	405,00
-14951,26	522,00
-14915,69	490,00
-14880,22	405,00
-14844,84	454,00
-14809,55	429,00
-14774,35	414,00
-14739,25	404,00
-14704,24	539,00
-14669,32	454,00
-14634,49	413,00
-14599,75	517,00
-14565,10	430,00
-14530,55	530,00
-14496,08	466,00
-14461,70	454,00
-14427,41	428,00
-14393,21	345,00
-14359,10	424,00
-14325,07	448,00
-14291,14	407,00
-14257,29	401,00
-14223,52	389,00
-14189,85	520,00
-14156,26	416,00
-14122,76	344,00
-14089,34	408,00
-14056,01	477,00
-14022,76	392,00
-13989,60	521,00
-13956,52	464,00
-13923,53	492,00
-13890,62	317,00
-13857,79	473,00
-13825,05	317,00
-13792,39	367,00
-13759,81	462,00
-13727,31	467,00
-13694,90	416,00
-13662,57	590,00
-13630,31	469,00
-13598,14	410,00
-13566,05	355,00
-13534,05	380,00
-13502,12	433,00
-13470,27	418,00
-13438,50	441,00
-13406,80	470,00
-13375,19	457,00
-13343,66	489,00
-13312,20	560,00
-13280,83	361,00
-13249,53	484,00
-13218,30	395,00
-13187,16	376,00
-13156,09	541,00
-13125,10	429,00
-13094,18	508,00
-13063,34	442,00
-13032,58	369,00
-13001,89	457,00
-12971,28	449,00
-12940,74	442,00
-12910,27	515,00
-12879,88	522,00
-12849,57	473,00
-12819,33	489,00
-12789,16	412,00
-12759,06	432,00
-12729,04	339,00
-12699,09	284,00
-12669,21	484,00
-12639,41	480,00
-12609,68	411,00
-12580,02	473,00
-12550,43	501,00
-12520,91	408,00
-12491,46	497,00
-12462,08	355,00
-12432,77	486,00
-12403,54	365,00
-12374,37	378,00
-12345,27	472,00
-12316,24	427,00
-12287,29	487,00
-12258,40	421,00
-12229,57	501,00
-12200,82	409,00
-12172,14	495,00
-12143,52	349,00
-12114,97	386,00
-12086,49	503,00
-12058,07	487,00
-12029,73	392,00
-12001,44	488,00
-11973,23	471,00
-11945,08	413,00
-11917,00	436,00
-11888,98	403,00
-11861,03	577,00
-11833,15	444,00
-11805,32	511,00
-11777,57	440,00
-11749,88	504,00
-11722,25	395,00
-11694,69	372,00
-11667,19	499,00
-11639,75	417,00
-11612,38	410,00
-11585,07	417,00
-11557,83	470,00
-11530,65	560,00
-11503,53	400,00
-11476,47	467,00
-11449,48	395,00
-11422,54	540,00
-11395,67	403,00
-11368,86	473,00
-11342,11	380,00
-11315,43	365,00
-11288,80	401,00
-11262,23	435,00
-11235,73	423,00
-11209,28	611,00
-11182,90	401,00
-11156,57	394,00
-11130,31	540,00
-11104,10	412,00
-11077,96	356,00
-11051,87	373,00
-11025,84	416,00
-10999,87	420,00
-10973,96	462,00
-10948,11	352,00
-10922,31	460,00
-10896,58	445,00
-10870,90	493,00
-10845,28	465,00
-10819,71	413,00
-10794,20	549,00
-10768,75	480,00
-10743,36	461,00
-10718,02	422,00
-10692,74	408,00
-10667,52	482,00
-10642,35	476,00
-10617,24	493,00
-10592,18	562,00
-10567,18	491,00
-10542,23	443,00
-10517,34	490,00
-10492,51	521,00
-10467,72	409,00
-10443,00	585,00
-10418,32	472,00
-10393,70	627,00
-10369,14	466,00
-10344,63	516,00
-10320,17	566,00
-10295,77	446,00
-10271,42	500,00
-10247,12	582,00
-10222,88	617,00
-10198,68	551,00
-10174,54	467,00
-10150,46	702,00
-10126,42	607,00
-10102,44	589,00
-10078,51	565,00
-10054,63	658,00
-10030,80	566,00
-10007,03	656,00
-9983,30	599,00
-9959,63	753,00
-9936,01	770,00
-9912,44	742,00
-9888,92	813,00
-9865,44	656,00
-9842,02	777,00
-9818,65	852,00
-9795,33	703,00
-9772,06	783,00
-9748,84	846,00
-9725,67	844,00
-9702,55	901,00
-9679,47	1048,00
-9656,45	1180,00
-9633,47	1004,00
-9610,55	1162,00
-9587,67	1253,00
-9564,84	1342,00
-9542,06	1414,00
-9519,32	1491,00
-9496,64	1747,00
-9474,00	1636,00
-9451,41	1731,00
-9428,87	1786,00
-9406,37	1854,00
-9383,92	1672,00
-9361,52	1617,00
-9339,17	1831,00
-9316,86	2044,00
-9294,60	2214,00
-9272,38	2357,00
-9250,21	2697,00
-9228,09	2740,00
-9206,01	2822,00
-9183,98	2690,00
-9162,00	2376,00
-9140,06	2419,00
-9118,16	2379,00
-9096,31	2342,00
-9074,51	2482,00
-9052,75	2589,00
-9031,04	2620,00
-9009,37	2382,00
-8987,74	2216,00
-8966,16	2119,00
-8944,63	1866,00
-8923,14	1959,00
-8901,69	1833,00
-8880,29	1786,00
-8858,93	2054,00
-8837,61	2235,00
-8816,34	2348,00
-8795,11	2326,00
-8773,92	2141,00
-8752,78	2123,00
-8731,68	1788,00
-8710,62	2043,00
-8689,61	1947,00
-8668,63	2083,00
-8647,70	2209,00
-8626,82	2184,00
-8605,97	2199,00
-8585,17	2144,00
-8564,41	1973,00
-8543,69	1898,00
-8523,01	1671,00
-8502,37	1818,00
-8481,78	1793,00
-8461,23	1844,00
-8440,71	2051,00
-8420,24	2169,00
-8399,81	2168,00
-8379,42	2190,00
-8359,08	2086,00
-8338,77	1851,00
-8318,50	1708,00
-8298,27	1598,00
-8278,09	1813,00
-8257,94	1793,00
-8237,83	1998,00
-8217,76	2053,00
-8197,74	2023,00
-8177,75	2041,00
-8157,80	1767,00
-8137,89	1782,00
-8118,02	1583,00
-8098,19	1707,00
-8078,40	1709,00
-8058,65	1717,00
-8038,93	1751,00
-8019,26	1671,00
-7999,62	1680,00
-7980,02	1593,00
-7960,46	1482,00
-7940,94	1437,00
-7921,46	1506,00
-7902,01	1388,00
-7882,60	1529,00
-7863,23	1453,00
-7843,90	1413,00
-7824,61	1498,00
-7805,35	1648,00
-7786,13	1607,00
-7766,95	1572,00
-7747,80	1606,00
-7728,69	1633,00
-7709,62	1410,00
-7690,59	1573,00
-7671,59	1684,00
-7652,63	1658,00
-7633,70	1608,00
-7614,81	1678,00
-7595,96	1508,00
-7577,15	1482,00
-7558,37	1331,00
-7539,62	1397,00
-7520,91	1405,00
-7502,24	1452,00
-7483,60	1474,00
-7465,00	1500,00
-7446,44	1501,00
-7427,91	1229,00
-7409,41	1133,00
-7390,95	1168,00
-7372,53	1052,00
-7354,14	1115,00
-7335,78	1082,00
-7317,46	1163,00
-7299,18	1139,00
-7280,92	1225,00
-7262,71	1335,00
-7244,52	1395,00
-7226,38	1532,00
-7208,26	1381,00
-7190,18	1403,00
-7172,14	1322,00
-7154,12	1288,00
-7136,15	1312,00
-7118,20	1414,00
-7100,29	1403,00
-7082,41	1491,00
-7064,57	1400,00
-7046,76	1378,00
-7028,98	1159,00
-7011,24	1215,00
-6993,53	1096,00
-6975,85	1063,00
-6958,20	860,00
-6940,59	927,00
-6923,01	820,00
-6905,46	1139,00
-6887,94	1005,00
-6870,46	-1023,00
-6853,01	1203,00
-6835,59	1281,00
-6818,21	1144,00
-6800,85	1152,00
-6783,53	1030,00
-6766,24	921,00
-6748,98	971,00
-6731,76	837,00
-6714,56	746,00
-6697,40	688,00
-6680,26	721,00
-6663,16	834,00
-6646,09	949,00
-6629,05	1001,00
-6612,05	1142,00
-6595,07	1057,00
-6578,13	1111,00
-6561,21	948,00
-6544,33	923,00
-6527,47	692,00
-6510,65	753,00
-6493,86	617,00
-6477,10	682,00
-6460,36	769,00
-6443,66	699,00
-6426,99	715,00
-6410,35	734,00
-6393,74	734,00
-6377,16	697,00
-6360,61	861,00
-6344,09	780,00
-6327,59	875,00
-6311,13	915,00
-6294,70	778,00
-6278,29	910,00
-6261,92	968,00
-6245,58	1055,00
-6229,26	1114,00
-6212,97	1025,00
-6196,72	847,00
-6180,49	852,00
-6164,29	583,00
-6148,12	712,00
-6131,98	701,00
-6115,86	593,00
-6099,78	550,00
-6083,72	604,00
-6067,69	467,00
-6051,69	496,00
-6035,72	581,00
-6019,78	683,00
-6003,87	851,00
-5987,98	801,00
-5972,12	832,00
-5956,29	751,00
-5940,49	742,00
-5924,71	758,00
-5908,96	631,00
-5893,24	625,00
-5877,55	666,00
-5861,89	667,00
-5846,25	569,00
-5830,64	688,00
-5815,05	613,00
-5799,50	598,00
-5783,97	645,00
-5768,47	658,00
-5752,99	754,00
-5737,55	728,00
-5722,12	826,00
-5706,73	966,00
-5691,36	717,00
-5676,02	732,00
-5660,71	624,00
-5645,42	660,00
-5630,16	640,00
-5614,92	716,00
-5599,71	644,00
-5584,53	729,00
-5569,37	729,00
-5554,24	1567,00
-5539,14	695,00
-5524,06	634,00
-5509,01	785,00
-5493,98	702,00
-5478,98	784,00
-5464,00	626,00
-5449,05	711,00
-5434,13	709,00
-5419,23	560,00
-5404,36	661,00
-5389,51	684,00
-5374,69	861,00
-5359,89	812,00
-5345,12	890,00
-5330,37	926,00
-5315,65	819,00
-5300,95	806,00
-5286,28	657,00
-5271,63	626,00
-5257,01	745,00
-5242,41	744,00
-5227,84	672,00
-5213,29	612,00
-5198,76	610,00
-5184,26	548,00
-5169,79	503,00
-5155,33	654,00
-5140,91	726,00
-5126,51	669,00
-5112,13	764,00
-5097,77	646,00
-5083,44	650,00
-5069,13	544,00
-5054,85	640,00
-5040,59	716,00
-5026,36	643,00
-5012,15	807,00
-4997,96	781,00
-4983,80	678,00
-4969,66	590,00
-4955,54	516,00
-4941,44	614,00
-4927,37	568,00
-4913,33	932,00
-4899,30	933,00
-4885,30	908,00
-4871,33	733,00
-4857,37	568,00
-4843,44	507,00
-4829,53	553,00
-4815,65	651,00
-4801,79	646,00
-4787,95	750,00
-4774,13	560,00
-4760,34	562,00
-4746,56	544,00
-4732,82	565,00
-4719,09	639,00
-4705,38	789,00
-4691,70	813,00
-4678,04	888,00
-4664,41	724,00
-4650,79	771,00
-4637,20	525,00
-4623,63	573,00
-4610,08	742,00
-4596,56	682,00
-4583,05	686,00
-4569,57	574,00
-4556,11	641,00
-4542,67	470,00
-4529,25	555,00
-4515,86	585,00
-4502,49	798,00
-4489,13	884,00
-4475,80	828,00
-4462,49	547,00
-4449,21	584,00
-4435,94	607,00
-4422,70	514,00
-4409,47	564,00
-4396,27	702,00
-4383,09	561,00
-4369,93	573,00
-4356,79	466,00
-4343,67	525,00
-4330,58	599,00
-4317,50	626,00
-4304,45	727,00
-4291,41	560,00
-4278,40	486,00
-4265,41	428,00
-4252,44	603,00
-4239,49	515,00
-4226,55	698,00
-4213,65	545,00
-4200,76	613,00
-4187,89	508,00
-4175,04	389,00
-4162,21	445,00
-4149,40	540,00
-4136,61	479,00
-4123,85	502,00
-4111,10	496,00
-4098,37	537,00
-4085,66	535,00
-4072,98	545,00
-4060,31	482,00
-4047,66	601,00
-4035,04	678,00
-4022,43	447,00
-4009,84	440,00
-3997,27	363,00
-3984,72	510,00
-3972,19	424,00
-3959,69	534,00
-3947,20	520,00
-3934,73	448,00
-3922,27	371,00
-3909,84	440,00
-3897,43	486,00
-3885,04	497,00
-3872,67	515,00
-3860,31	483,00
-3847,98	494,00
-3835,66	480,00
-3823,36	421,00
-3811,09	449,00
-3798,83	462,00
-3786,59	515,00
-3774,37	549,00
-3762,17	377,00
-3749,98	451,00
-3737,82	436,00
-3725,67	562,00
-3713,55	400,00
-3701,44	437,00
-3689,35	454,00
-3677,28	584,00
-3665,22	458,00
-3653,19	451,00
-3641,17	460,00
-3629,18	490,00
-3617,20	428,00
-3605,24	454,00
-3593,30	485,00
-3581,37	479,00
-3569,47	426,00
-3557,58	423,00
-3545,71	463,00
-3533,86	513,00
-3522,02	472,00
-3510,21	535,00
-3498,41	550,00
-3486,63	492,00
-3474,87	430,00
-3463,12	462,00
-3451,40	441,00
-3439,69	445,00
-3428,00	421,00
-3416,33	439,00
-3404,67	371,00
-3393,03	401,00
-3381,41	503,00
-3369,81	546,00
-3358,22	507,00
-3346,66	540,00
-3335,10	474,00
-3323,57	442,00
-3312,06	395,00
-3300,56	492,00
-3289,08	443,00
-3277,61	464,00
-3266,16	412,00
-3254,73	432,00
-3243,32	492,00
-3231,92	395,00
-3220,55	543,00
-3209,18	557,00
-3197,84	421,00
-3186,51	491,00
-3175,20	415,00
-3163,90	453,00
-3152,63	572,00
-3141,36	404,00
-3130,12	532,00
-3118,89	514,00
-3107,68	407,00
-3096,49	518,00
-3085,31	340,00
-3074,15	446,00
-3063,00	507,00
-3051,87	443,00
-3040,76	483,00
-3029,67	567,00
-3018,59	580,00
-3007,52	607,00
-2996,48	446,00
-2985,44	473,00
-2974,43	475,00
-2963,43	435,00
-2952,45	486,00
-2941,48	474,00
-2930,53	438,00
-2919,60	333,00
-2908,68	433,00
-2897,78	484,00
-2886,89	488,00
-2876,02	517,00
-2865,17	432,00
-2854,33	513,00
-2843,50	495,00
-2832,70	435,00
-2821,90	437,00
-2811,13	553,00
-2800,37	482,00
-2789,62	350,00
-2778,89	454,00
-2768,18	531,00
-2757,48	503,00
-2746,80	459,00
-2736,13	446,00
-2725,48	531,00
-2714,84	396,00
-2704,22	458,00
-2693,61	421,00
-2683,02	434,00
-2672,45	482,00
-2661,89	437,00
-2651,34	532,00
-2640,81	411,00
-2630,30	495,00
-2619,80	399,00
-2609,31	519,00
-2598,84	420,00
-2588,39	518,00
-2577,95	466,00
-2567,52	414,00
-2557,11	455,00
-2546,71	441,00
-2536,33	584,00
-2525,97	463,00
-2515,62	454,00
-2505,28	514,00
-2494,96	505,00
-2484,65	509,00
-2474,36	619,00
-2464,08	374,00
-2453,82	520,00
-2443,57	501,00
-2433,33	496,00
-2423,11	492,00
-2412,91	450,00
-2402,72	438,00
-2392,54	452,00
-2382,38	485,00
-2372,23	518,00
-2362,09	-2527,00
-2351,97	461,00
-2341,87	403,00
-2331,78	510,00
-2321,70	481,00
-2311,64	486,00
-2301,59	448,00
-2291,55	481,00
-2281,53	548,00
-2271,53	295,00
-2261,53	502,00
-2251,55	447,00
-2241,59	427,00
-2231,64	476,00
-2221,70	506,00
-2211,78	451,00
-2201,87	441,00
-2191,97	426,00
-2182,09	432,00
-2172,22	503,00
-2162,37	406,00
-2152,53	433,00
-2142,70	462,00
-2132,89	499,00
-2123,09	564,00
-2113,30	450,00
-2103,53	463,00
-2093,77	490,00
-2084,02	440,00
-2074,29	491,00
-2064,57	469,00
-2054,86	518,00
-2045,17	515,00
-2035,49	449,00
-2025,82	418,00
-2016,17	467,00
-2006,53	488,00
-1996,91	526,00
-1987,29	474,00
-1977,69	490,00
-1968,11	452,00
-1958,53	446,00
-1948,97	423,00
-1939,42	407,00
-1929,89	433,00
-1920,37	444,00
-1910,86	410,00
-1901,36	474,00
-1891,88	474,00
-1882,41	470,00
-1872,95	495,00
-1863,51	514,00
-1854,08	420,00
-1844,66	532,00
-1835,26	467,00
-1825,86	479,00
-1816,48	427,00
-1807,11	513,00
-1797,76	427,00
-1788,42	457,00
-1779,09	404,00
-1769,77	455,00
-1760,47	550,00
-1751,17	387,00
-1741,89	409,00
-1732,63	454,00
-1723,37	626,00
-1714,13	536,00
-1704,90	441,00
-1695,68	582,00
-1686,48	295,00
-1677,29	321,00
-1668,11	465,00
-1658,94	436,00
-1649,78	443,00
-1640,64	477,00
-1631,51	501,00
-1622,39	477,00
-1613,28	570,00
-1604,19	515,00
-1595,10	435,00
-1586,03	458,00
-1576,97	469,00
-1567,93	443,00
-1558,89	443,00
-1549,87	488,00
-1540,86	408,00
-1531,86	464,00
-1522,87	373,00
-1513,90	539,00
-1504,93	515,00
-1495,98	543,00
-1487,04	418,00
-1478,12	435,00
-1469,20	481,00
-1460,30	492,00
-1451,40	487,00
-1442,52	495,00
-1433,65	600,00
-1424,80	400,00
-1415,95	477,00
-1407,12	546,00
-1398,30	359,00
-1389,48	555,00
-1380,69	377,00
-1371,90	392,00
-1363,12	485,00
-1354,36	544,00
-1345,60	459,00
-1336,86	444,00
-1328,13	517,00
-1319,41	468,00
-1310,70	474,00
-1302,01	360,00
-1293,32	429,00
-1284,65	460,00
-1275,99	517,00
-1267,33	562,00
-1258,69	538,00
-1250,06	515,00
-1241,45	399,00
-1232,84	605,00
-1224,25	428,00
-1215,66	464,00
-1207,09	455,00
-1198,53	404,00
-1189,97	547,00
-1181,43	444,00
-1172,91	430,00
-1164,39	487,00
-1155,88	418,00
-1147,38	412,00
-1138,90	448,00
-1130,43	458,00
-1121,96	495,00
-1113,51	470,00
-1105,07	512,00
-1096,64	498,00
-1088,22	507,00
-1079,81	563,00
-1071,41	424,00
-1063,02	438,00
-1054,65	508,00
-1046,28	442,00
-1037,92	484,00
-1029,58	427,00
-1021,24	513,00
-1012,92	602,00
-1004,61	395,00
-996,30	540,00
-988,01	407,00
-979,73	447,00
-971,46	460,00
-963,20	454,00
-954,95	422,00
-946,71	472,00
-938,48	459,00
-930,26	488,00
-922,06	514,00
-913,86	456,00
-905,67	410,00
-897,49	525,00
-889,33	379,00
-881,17	502,00
-873,02	482,00
-864,89	427,00
-856,76	459,00
-848,65	486,00
-840,54	566,00
-832,45	402,00
-824,36	412,00
-816,29	431,00
-808,22	408,00
-800,17	501,00
-792,12	511,00
-784,09	483,00
-776,06	400,00
-768,05	478,00
-760,04	526,00
-752,05	509,00
-744,07	495,00
-736,09	497,00
-728,13	359,00
-720,17	463,00
-712,23	475,00
-704,29	457,00
-696,37	348,00
-688,45	512,00
-680,55	486,00
-672,65	451,00
-664,77	432,00
-656,89	506,00
-649,03	379,00
-641,17	545,00
-633,32	463,00
-625,49	472,00
-617,66	466,00
-609,84	536,00
-602,03	404,00
-594,23	478,00
-586,45	442,00
-578,67	400,00
-570,90	547,00
-563,14	380,00
-555,39	480,00
-547,65	497,00
-539,91	501,00
-532,19	519,00
-524,48	538,00
-516,78	442,00
-509,08	597,00
-501,40	467,00
-493,72	507,00
-486,06	478,00
-478,40	508,00
-470,76	411,00
-463,12	431,00
-455,49	429,00
-447,87	492,00
-440,26	453,00
-432,66	424,00
-425,07	466,00
-417,49	546,00
-409,92	456,00
-402,35	390,00
-394,80	418,00
-387,25	456,00
-379,72	469,00
-372,19	575,00
-364,67	511,00
-357,17	482,00
-349,67	492,00
-342,18	462,00
-334,69	500,00
-327,22	558,00
-319,76	486,00
-312,30	525,00
-304,86	450,00
-297,42	567,00
-290,00	476,00
-282,58	525,00
-275,17	547,00
-267,77	625,00
-260,37	535,00
-252,99	557,00
-245,62	597,00
-238,25	555,00
-230,90	501,00
-223,55	544,00
-216,21	567,00
-208,88	665,00
-201,56	565,00
-194,25	557,00
-186,94	553,00
-179,65	687,00
-172,36	641,00
-165,08	720,00
-157,81	682,00
-150,55	742,00
-143,30	721,00
-136,06	776,00
-128,82	789,00
-121,60	889,00
-114,38	941,00
-107,17	1057,00
-99,97	1133,00
-92,78	1133,00
-85,60	1119,00
-78,42	1396,00
-71,25	1454,00
-64,10	1721,00
-56,95	1843,00
-49,81	2085,00
-42,67	2640,00
-35,55	3054,00
-28,43	3995,00
-21,33	6299,00
-14,23	19402,00
-7,14	57498,00
-0,05	57284,00
7,02	57012,00
14,09	57319,00
21,14	17293,00
28,19	7367,00
35,23	4808,00
42,27	4012,00
49,29	3138,00
56,31	2774,00
63,32	2508,00
70,32	2062,00
77,31	1905,00
84,29	1673,00
91,27	1647,00
98,23	1522,00
105,19	1517,00
112,14	1851,00
119,09	3216,00
126,02	5461,00
132,95	6804,00
139,87	7352,00
146,78	7483,00
153,68	7525,00
160,58	7443,00
167,46	7424,00
174,34	7430,00
181,21	7399,00
188,08	7512,00
194,93	7402,00
201,78	7441,00
208,62	7465,00
215,45	7631,00
222,27	7586,00
229,09	7698,00
235,90	7562,00
242,70	7588,00
249,49	7590,00
256,27	7506,00
263,05	7470,00
269,82	7495,00
276,58	7554,00
283,33	7456,00
290,08	7374,00
296,82	7432,00
303,55	7227,00
310,27	7177,00
316,98	7231,00
323,69	7130,00
330,39	7270,00
337,08	7184,00
343,76	7261,00
350,44	7315,00
357,11	7079,00
363,77	7142,00
370,42	7250,00
377,07	7189,00
383,71	7152,00
390,34	7191,00
396,96	7279,00
403,58	7387,00
410,19	7413,00
416,79	7345,00
423,38	7261,00
429,97	7214,00
436,55	7029,00
443,12	6875,00
449,68	7044,00
456,24	6880,00
462,79	6958,00
469,33	6750,00
475,86	6942,00
482,39	6819,00
488,91	6925,00
495,42	6833,00
501,93	6832,00
508,42	6711,00
514,91	6657,00
521,40	6636,00
527,87	6689,00
534,34	6614,00
540,80	6501,00
547,25	6600,00
553,70	6709,00
560,14	6612,00
566,57	6615,00
573,00	6562,00
579,41	6666,00
585,83	6614,00
592,23	6588,00
598,62	6671,00
605,01	6527,00
611,40	6678,00
617,77	6542,00
624,14	6504,00
630,50	6476,00
636,85	6408,00
643,20	6411,00
649,54	6383,00
655,87	6419,00
662,20	6346,00
668,52	6308,00
674,83	6279,00
681,13	6260,00
687,43	6174,00
693,72	6200,00
700,00	6150,00
706,28	6155,00
712,55	6097,00
718,81	6174,00
725,07	6125,00
731,32	6223,00
737,56	6103,00
743,79	6112,00
750,02	6191,00
756,24	6119,00
762,46	6029,00
768,67	6222,00
774,87	6091,00
781,06	6044,00
787,25	6131,00
793,43	6186,00
799,60	6063,00
805,77	6109,00
811,93	5968,00
818,08	6047,00
824,23	5941,00
830,37	6130,00
836,50	5911,00
842,63	5959,00
848,75	5942,00
854,87	5841,00
860,97	5991,00
867,07	5817,00
873,17	5855,00
879,25	5801,00
885,33	5866,00
891,41	5751,00
897,47	5872,00
903,53	5662,00
909,59	5721,00
915,63	5606,00
921,67	5724,00
927,71	5730,00
933,74	5819,00
939,76	5542,00
945,77	5673,00
951,78	5769,00
957,78	5562,00
963,78	5661,00
969,77	5571,00
975,75	5630,00
981,72	5670,00
987,69	6409,00
993,66	5779,00
999,61	5675,00
1005,56	5709,00
1011,51	5618,00
1017,44	5652,00
1023,37	5677,00
1029,30	5626,00
1035,22	5545,00
1041,13	5770,00
1047,03	5699,00
1052,93	5679,00
1058,83	5895,00
1064,71	5982,00
1070,59	5869,00
1076,47	5700,00
1082,33	5606,00
1088,20	5646,00
1094,05	5525,00
1099,90	5428,00
1105,74	5442,00
1111,58	5499,00
1117,41	5464,00
1123,23	5654,00
1129,05	5861,00
1134,86	5805,00
1140,67	5572,00
1146,47	5596,00
1152,26	5558,00
1158,05	5415,00
1163,83	5370,00
1169,60	5465,00
1175,37	5485,00
1181,13	5476,00
1186,89	5311,00
1192,64	5454,00
1198,38	5564,00
1204,12	5448,00
1209,85	5344,00
1215,58	5415,00
1221,30	5523,00
1227,02	5568,00
1232,72	5478,00
1238,43	5472,00
1244,12	5389,00
1249,81	5486,00
1255,50	5494,00
1261,17	5430,00
1266,85	5403,00
1272,51	5385,00
1278,17	5534,00
1283,83	5593,00
1289,47	5738,00
1295,12	5964,00
1300,75	5811,00
1306,38	5780,00
1312,01	5424,00
1317,63	5493,00
1323,24	5431,00
1328,85	5453,00
1334,45	5444,00
1340,04	5375,00
1345,63	5428,00
1351,22	5494,00
1356,80	5549,00
1362,37	5559,00
1367,93	5530,00
1373,49	5530,00
1379,05	5577,00
1384,60	5395,00
1390,14	5627,00
1395,68	5490,00
1401,21	5483,00
1406,74	5431,00
1412,26	5612,00
1417,77	5775,00
1423,28	5615,00
1428,78	5738,00
1434,28	5961,00
1439,77	5919,00
1445,26	6020,00
1450,74	5957,00
1456,22	5790,00
1461,68	5826,00
1467,15	5619,00
1472,61	5552,00
1478,06	5579,00
1483,51	5244,00
1488,95	5300,00
1494,38	5292,00
1499,81	5183,00
1505,24	5100,00
1510,65	5212,00
1516,07	5120,00
1521,48	5044,00
1526,88	4984,00
1532,27	5056,00
1537,67	4994,00
1543,05	5056,00
1548,43	4982,00
1553,81	5015,00
1559,18	4833,00
1564,54	4987,00
1569,90	4817,00
1575,25	4874,00
1580,60	4830,00
1585,94	4890,00
1591,28	4934,00
1596,61	4810,00
1601,93	4876,00
1607,25	4819,00
1612,57	4892,00
1617,88	4833,00
1623,18	4843,00
1628,48	4708,00
1633,77	4792,00
1639,06	4710,00
1644,34	4674,00
1649,62	4605,00
1654,89	4594,00
1660,16	4626,00
1665,42	4622,00
1670,67	4567,00
1675,92	4499,00
1681,17	4575,00
1686,41	4584,00
1691,64	4512,00
1696,87	4576,00
1702,10	4471,00
1707,32	4475,00
1712,53	4425,00
1717,74	4404,00
1722,94	4508,00
1728,14	4449,00
1733,33	4373,00
1738,52	4317,00
1743,70	4192,00
1748,88	4339,00
1754,05	4235,00
1759,22	4082,00
1764,38	4341,00
1769,53	4270,00
1774,69	4238,00
1779,83	4170,00
1784,97	4169,00
1790,11	4161,00
1795,24	4061,00
1800,36	4053,00
1805,48	4101,00
1810,60	4105,00
1815,71	4088,00
1820,82	4055,00
1825,92	4105,00
1831,01	4023,00
1836,10	3943,00
1841,19	4047,00
1846,26	3996,00
1851,34	4013,00
1856,41	4033,00
1861,47	3997,00
1866,53	4035,00
1871,59	3902,00
1876,64	3872,00
1881,68	3926,00
1886,72	3905,00
1891,76	3917,00
1896,79	3836,00
1901,81	3764,00
1906,83	3813,00
1911,85	3679,00
1916,86	3683,00
1921,86	3640,00
1926,86	3643,00
1931,86	3800,00
1936,85	3663,00
1941,83	3529,00
1946,81	3608,00
1951,79	3506,00
1956,76	3528,00
1961,72	3439,00
1966,68	3616,00
1971,64	3543,00
1976,59	3583,00
1981,54	3435,00
1986,48	3548,00
1991,42	3336,00
1996,35	3578,00
2001,27	3409,00
2006,20	3409,00
2011,11	3485,00
2016,03	3441,00
2020,93	3283,00
2025,84	3297,00
2030,73	3344,00
2035,63	3367,00
2040,52	3358,00
2045,40	3319,00
2050,28	3285,00
2055,15	3330,00
2060,02	3057,00
2064,89	3258,00
2069,75	3286,00
2074,60	3264,00
2079,46	3186,00
2084,30	3182,00
2089,14	3040,00
2093,98	3204,00
2098,81	3304,00
2103,64	3093,00
2108,46	3194,00
2113,28	3218,00
2118,09	3161,00
2122,90	3200,00
2127,70	3137,00
2132,50	3111,00
2137,30	3139,00
2142,09	3009,00
2146,87	3088,00
2151,66	3117,00
2156,43	3026,00
2161,20	2992,00
2165,97	3110,00
2170,73	2922,00
2175,49	3092,00
2180,24	3043,00
2184,99	3014,00
2189,74	3089,00
2194,48	3004,00
2199,21	3026,00
2203,94	2984,00
2208,67	2934,00
2213,39	2815,00
2218,11	2957,00
2222,82	2877,00
2227,53	2952,00
2232,23	2873,00
2236,93	2813,00
2241,63	2774,00
2246,32	2854,00
2251,00	2780,00
2255,68	2797,00
2260,36	2851,00
2265,03	2788,00
2269,70	2867,00
2274,36	2688,00
2279,02	2740,00
2283,68	2743,00
2288,33	2690,00
2292,97	2767,00
2297,61	2624,00
2302,25	2721,00
2306,88	2664,00
2311,51	2608,00
2316,14	2623,00
2320,75	2578,00
2325,37	2509,00
2329,98	2672,00
2334,59	2554,00
2339,19	2581,00
2343,79	2461,00
2348,38	2652,00
2352,97	2470,00
2357,55	2556,00
2362,13	2416,00
2366,71	2442,00
2371,28	2553,00
2375,85	2419,00
2380,41	2418,00
2384,97	2363,00
2389,52	2459,00
2394,07	2411,00
2398,62	2360,00
2403,16	2480,00
2407,70	2292,00
2412,23	2283,00
2416,76	2342,00
2421,29	2306,00
2425,81	2411,00
2430,32	2410,00
2434,84	2172,00
2439,34	2255,00
2443,85	2417,00
2448,35	2228,00
2452,84	2187,00
2457,33	2239,00
2461,82	2180,00
2466,30	2206,00
2470,78	2141,00
2475,25	2142,00
2479,72	2168,00
2484,19	2194,00
2488,65	2097,00
2493,11	2111,00
2497,56	2339,00
2502,01	2072,00
2506,46	2093,00
2510,90	2108,00
2515,34	1991,00
2519,77	2087,00
2524,20	2129,00
2528,62	2117,00
2533,04	2121,00
2537,46	2032,00
2541,87	1995,00
2546,28	2057,00
2550,68	2013,00
2555,08	2078,00
2559,48	2032,00
2563,87	1825,00
2568,26	1933,00
2572,64	1991,00
2577,02	1890,00
2581,40	1834,00
2585,77	1925,00
2590,14	1864,00
2594,50	1800,00
2598,86	1824,00
2603,22	1755,00
2607,57	1682,00
2611,92	1847,00
2616,26	1936,00
2620,60	1837,00
2624,94	1778,00
2629,27	1749,00
2633,60	1615,00
2637,92	1864,00
2642,24	1745,00
2646,56	1632,00
2650,87	1601,00
2655,18	1769,00
2659,48	1645,00
2663,78	1726,00
2668,08	1693,00
2672,37	1735,00
2676,66	1687,00
2680,95	1617,00
2685,23	1644,00
2689,50	1662,00
2693,78	1654,00
2698,05	1580,00
2702,31	1717,00
2706,57	1761,00
2710,83	1702,00
2715,08	1870,00
2719,33	1645,00
2723,58	1652,00
2727,82	1804,00
2732,06	1748,00
2736,29	1717,00
2740,53	1618,00
2744,75	1494,00
2748,97	1536,00
2753,19	1593,00
2757,41	1583,00
2761,62	1585,00
2765,83	1610,00
2770,03	1541,00
2774,23	1591,00
2778,43	1570,00
2782,62	1529,00
2786,81	1562,00
2791,00	1569,00
2795,18	1510,00
2799,35	1572,00
2803,53	1551,00
2807,70	1537,00
2811,86	1520,00
2816,03	1705,00
2820,19	1546,00
2824,34	1587,00
2828,49	1583,00
2832,64	1638,00
2836,78	1745,00
2840,92	1793,00
2845,06	2085,00
2849,19	2144,00
2853,32	2120,00
2857,45	2048,00
2861,57	2081,00
2865,69	2024,00
2869,80	1998,00
2873,91	1948,00
2878,02	2102,00
2882,12	2068,00
2886,22	2125,00
2890,32	1999,00
2894,41	2028,00
2898,50	1896,00
2902,58	1903,00
2906,67	1920,00
2910,74	1744,00
2914,82	1755,00
2918,89	1801,00
2922,96	1532,00
2927,02	1573,00
2931,08	1514,00
2935,13	1446,00
2939,19	1533,00
2943,24	1462,00
2947,28	1527,00
2951,32	1282,00
2955,36	1253,00
2959,40	1327,00
2963,43	1260,00
2967,46	1248,00
2971,48	1286,00
2975,50	1236,00
2979,52	1182,00
2983,53	1241,00
2987,54	1091,00
2991,55	1191,00
2995,55	1183,00
2999,55	1069,00
3003,54	1066,00
3007,54	1166,00
3011,53	1111,00
3015,51	1155,00
3019,49	1077,00
3023,47	1054,00
3027,45	1111,00
3031,42	1010,00
3035,39	968,00
3039,35	989,00
3043,31	1040,00
3047,27	1089,00
3051,22	1004,00
3055,17	979,00
3059,12	990,00
3063,06	1026,00
3067,00	949,00
3070,94	870,00
3074,87	1034,00
3078,80	937,00
3082,73	1007,00
3086,65	966,00
3090,57	969,00
3094,49	903,00
3098,40	922,00
3102,31	956,00
3106,22	937,00
3110,12	948,00
3114,02	842,00
3117,92	974,00
3121,81	842,00
3125,70	881,00
3129,58	932,00
3133,47	802,00
3137,34	913,00
3141,22	949,00
3145,09	916,00
3148,96	930,00
3152,83	857,00
3156,69	911,00
3160,55	843,00
3164,40	967,00
3168,26	925,00
3172,10	826,00
3175,95	912,00
3179,79	902,00
3183,63	872,00
3187,47	782,00
3191,30	827,00
3195,13	790,00
3198,95	739,00
3202,78	789,00
3206,60	766,00
3210,41	749,00
3214,23	741,00
3218,03	770,00
3221,84	765,00
3225,64	782,00
3229,44	764,00
3233,24	737,00
3237,03	783,00
3240,82	685,00
3244,61	681,00
3248,39	727,00
3252,17	786,00
3255,95	847,00
3259,72	750,00
3263,49	839,00
3267,26	746,00
3271,03	840,00
3274,79	701,00
3278,54	758,00
3282,30	665,00
3286,05	783,00
3289,80	684,00
3293,54	731,00
3297,29	712,00
3301,02	714,00
3304,76	678,00
3308,49	637,00
3312,22	554,00
3315,95	718,00
3319,67	675,00
3323,39	767,00
3327,10	656,00
3330,82	613,00
3334,53	702,00
3338,24	694,00
3341,94	658,00
3345,64	586,00
3349,34	694,00
3353,03	633,00
3356,72	656,00
3360,41	698,00
3364,10	611,00
3367,78	707,00
3371,46	646,00
3375,13	660,00
3378,81	621,00
3382,48	728,00
3386,14	701,00
3389,81	679,00
3393,47	622,00
3397,12	705,00
3400,78	614,00
3404,43	611,00
3408,08	669,00
3411,72	561,00
3415,36	552,00
3419,00	672,00
3422,64	565,00
3426,27	573,00
3429,90	624,00
3433,53	549,00
3437,15	557,00
3440,77	510,00
3444,39	636,00
3448,00	620,00
3451,62	578,00
3455,22	578,00
3458,83	452,00
3462,43	587,00
3466,03	585,00
3469,63	481,00
3473,22	531,00
3476,81	517,00
3480,40	613,00
3483,99	600,00
3487,57	508,00
3491,15	556,00
3494,72	666,00
3498,29	622,00
3501,86	544,00
3505,43	515,00
3508,99	450,00
3512,56	390,00
3516,11	546,00
3519,67	561,00
3523,22	510,00
3526,77	542,00
3530,32	690,00
3533,86	628,00
3537,40	512,00
3540,94	475,00
3544,47	509,00
3548,00	537,00
3551,53	503,00
3555,06	548,00
3558,58	542,00
3562,10	583,00
3565,62	441,00
3569,13	507,00
3572,64	638,00
3576,15	438,00
3579,66	430,00
3583,16	508,00
3586,66	445,00
3590,16	519,00
3593,65	460,00
3597,14	481,00
3600,63	497,00
3604,11	481,00
3607,60	415,00
3611,08	490,00
3614,55	482,00
3618,03	474,00
3621,50	380,00
3624,97	384,00
3628,43	425,00
3631,90	441,00
3635,36	422,00
3638,81	493,00
3642,27	454,00
3645,72	427,00
3649,17	422,00
3652,61	380,00
3656,06	481,00
3659,50	493,00
3662,93	407,00
3666,37	462,00
3669,80	605,00
3673,23	552,00
3676,65	420,00
3680,08	505,00
3683,50	372,00
3686,92	414,00
3690,33	490,00
3693,74	423,00
3697,15	399,00
3700,56	531,00
3703,96	521,00
3707,36	392,00
3710,76	418,00
3714,16	376,00
3717,55	448,00
3720,94	375,00
3724,33	421,00
3727,71	425,00
3731,10	439,00
3734,48	427,00
3737,85	340,00
3741,23	413,00
3744,60	385,00
3747,97	340,00
3751,33	512,00
3754,69	443,00
3758,05	402,00
3761,41	362,00
3764,77	377,00
3768,12	424,00
3771,47	382,00
3774,82	307,00
3778,16	-2,00
3781,50	9,00
3784,84	1,00
3788,18	8,00
>>>>>End Processed Spectral Data<<<<<
