SpectraSuite Data File
++++++++++++++++++++++++++++++++++++
Date: Mon Jan 05 16:25:25 ICT 2026
User: Administrator
Dark Spectrum Present: Yes
Reference Spectrum Present: No
Number of Sampled Component Spectra: 1
Spectrometers: MAYP113682
Integration Time (usec): 3000000 (MAYP113682)
Spectra Averaged: 1 (MAYP113682)
Boxcar Smoothing: 0 (MAYP113682)
Correct for Electrical Dark: No (MAYP113682)
Strobe/Lamp Enabled: No (MAYP113682)
Correct for Detector Non-linearity: No (MAYP113682)
Correct for Stray Light: No (MAYP113682)
Number of Pixels in Processed Spectrum: 2068
>>>>>Begin Processed Spectral Data<<<<<
-37534,58	18,00
-37414,56	11,00
-37295,11	2,00
-37176,24	-1,00
-37057,95	249,00
-36940,22	315,00
-36823,05	343,00
-36706,45	393,00
-36590,40	330,00
-36474,90	393,00
-36359,95	411,00
-36245,55	443,00
-36131,68	406,00
-36018,35	393,00
-35905,55	366,00
-35793,29	428,00
-35681,54	334,00
-35570,32	331,00
-35459,62	359,00
-35349,43	387,00
-35239,75	433,00
-35130,58	345,00
-35021,91	371,00
-34913,74	400,00
-34806,07	434,00
-34698,89	432,00
-34592,20	347,00
-34486,00	470,00
-34380,28	451,00
-34275,04	395,00
-34170,27	334,00
-34065,98	506,00
-33962,16	461,00
-33858,81	450,00
-33755,92	352,00
-33653,49	460,00
-33551,52	507,00
-33450,01	484,00
-33348,94	406,00
-33248,33	381,00
-33148,16	352,00
-33048,43	441,00
-32949,14	521,00
-32850,29	461,00
-32751,87	372,00
-32653,89	515,00
-32556,33	440,00
-32459,20	339,00
-32362,49	473,00
-32266,19	428,00
-32170,32	362,00
-32074,86	449,00
-31979,82	470,00
-31885,18	509,00
-31790,95	412,00
-31697,12	528,00
-31603,69	467,00
-31510,67	470,00
-31418,04	509,00
-31325,80	455,00
-31233,95	300,00
-31142,49	479,00
-31051,42	403,00
-30960,73	543,00
-30870,43	455,00
-30780,50	459,00
-30690,95	444,00
-30601,77	548,00
-30512,97	380,00
-30424,53	379,00
-30336,46	387,00
-30248,76	423,00
-30161,42	449,00
-30074,44	401,00
-29987,81	541,00
-29901,55	507,00
-29815,63	461,00
-29730,07	469,00
-29644,86	469,00
-29560,00	478,00
-29475,48	458,00
-29391,30	436,00
-29307,47	453,00
-29223,97	431,00
-29140,81	528,00
-29057,99	551,00
-28975,50	401,00
-28893,34	516,00
-28811,51	391,00
-28730,00	508,00
-28648,82	460,00
-28567,97	532,00
-28487,43	434,00
-28407,21	417,00
-28327,32	415,00
-28247,73	579,00
-28168,46	387,00
-28089,50	436,00
-28010,85	382,00
-27932,51	414,00
-27854,48	374,00
-27776,75	371,00
-27699,32	444,00
-27622,19	452,00
-27545,37	470,00
-27468,84	471,00
-27392,60	470,00
-27316,66	413,00
-27241,01	447,00
-27165,66	393,00
-27090,59	317,00
-27015,81	511,00
-26941,31	520,00
-26867,10	375,00
-26793,17	450,00
-26719,52	474,00
-26646,15	319,00
-26573,06	445,00
-26500,24	462,00
-26427,70	441,00
-26355,43	381,00
-26283,43	389,00
-26211,71	456,00
-26140,25	526,00
-26069,06	509,00
-25998,13	442,00
-25927,46	365,00
-25857,06	426,00
-25786,92	402,00
-25717,04	334,00
-25647,42	424,00
-25578,05	467,00
-25508,94	362,00
-25440,09	358,00
-25371,48	479,00
-25303,13	481,00
-25235,02	396,00
-25167,17	415,00
-25099,56	458,00
-25032,19	387,00
-24965,07	415,00
-24898,20	371,00
-24831,56	297,00
-24765,17	479,00
-24699,01	481,00
-24633,10	460,00
-24567,41	384,00
-24501,97	367,00
-24436,75	369,00
-24371,77	432,00
-24307,03	418,00
-24242,51	430,00
-24178,22	300,00
-24114,16	458,00
-24050,32	386,00
-23986,71	506,00
-23923,32	484,00
-23860,16	392,00
-23797,22	474,00
-23734,50	385,00
-23672,00	370,00
-23609,71	394,00
-23547,65	398,00
-23485,80	451,00
-23424,16	399,00
-23362,74	561,00
-23301,53	402,00
-23240,54	319,00
-23179,75	353,00
-23119,17	348,00
-23058,80	358,00
-22998,64	468,00
-22938,68	440,00
-22878,93	361,00
-22819,39	338,00
-22760,04	407,00
-22700,90	396,00
-22641,96	418,00
-22583,22	438,00
-22524,68	394,00
-22466,33	441,00
-22408,19	415,00
-22350,23	385,00
-22292,48	363,00
-22234,92	517,00
-22177,55	387,00
-22120,37	496,00
-22063,38	393,00
-22006,58	420,00
-21949,98	460,00
-21893,56	384,00
-21837,33	407,00
-21781,28	381,00
-21725,42	426,00
-21669,74	504,00
-21614,25	373,00
-21558,94	418,00
-21503,81	504,00
-21448,86	481,00
-21394,10	368,00
-21339,51	345,00
-21285,10	371,00
-21230,86	406,00
-21176,81	332,00
-21122,93	404,00
-21069,22	302,00
-21015,69	397,00
-20962,33	376,00
-20909,14	342,00
-20856,13	405,00
-20803,28	471,00
-20750,61	446,00
-20698,10	307,00
-20645,76	404,00
-20593,59	478,00
-20541,59	516,00
-20489,75	390,00
-20438,07	338,00
-20386,56	417,00
-20335,22	309,00
-20284,03	431,00
-20233,01	425,00
-20182,15	335,00
-20131,45	376,00
-20080,91	376,00
-20030,52	512,00
-19980,30	395,00
-19930,23	381,00
-19880,32	464,00
-19830,56	367,00
-19780,96	378,00
-19731,52	470,00
-19682,23	381,00
-19633,09	367,00
-19584,10	360,00
-19535,26	396,00
-19486,58	449,00
-19438,04	397,00
-19389,66	545,00
-19341,42	428,00
-19293,33	431,00
-19245,39	464,00
-19197,60	515,00
-19149,95	476,00
-19102,45	342,00
-19055,09	366,00
-19007,87	398,00
-18960,80	414,00
-18913,87	437,00
-18867,09	441,00
-18820,44	520,00
-18773,94	472,00
-18727,57	455,00
-18681,35	397,00
-18635,26	406,00
-18589,31	395,00
-18543,50	430,00
-18497,83	470,00
-18452,29	413,00
-18406,89	312,00
-18361,63	396,00
-18316,50	460,00
-18271,50	361,00
-18226,63	464,00
-18181,90	434,00
-18137,30	503,00
-18092,84	452,00
-18048,50	480,00
-18004,29	395,00
-17960,22	377,00
-17916,27	425,00
-17872,45	360,00
-17828,76	475,00
-17785,20	400,00
-17741,77	442,00
-17698,46	421,00
-17655,28	395,00
-17612,22	379,00
-17569,29	415,00
-17526,48	396,00
-17483,79	500,00
-17441,23	358,00
-17398,79	394,00
-17356,48	408,00
-17314,28	540,00
-17272,21	339,00
-17230,26	436,00
-17188,42	413,00
-17146,71	491,00
-17105,12	363,00
-17063,64	453,00
-17022,28	432,00
-16981,04	360,00
-16939,92	461,00
-16898,91	567,00
-16858,02	361,00
-16817,25	424,00
-16776,59	454,00
-16736,04	424,00
-16695,61	454,00
-16655,29	386,00
-16615,09	345,00
-16574,99	393,00
-16535,01	444,00
-16495,15	411,00
-16455,39	444,00
-16415,74	352,00
-16376,21	425,00
-16336,78	405,00
-16297,46	385,00
-16258,26	368,00
-16219,16	383,00
-16180,17	434,00
-16141,28	445,00
-16102,51	441,00
-16063,84	408,00
-16025,27	437,00
-15986,82	351,00
-15948,46	435,00
-15910,22	385,00
-15872,07	442,00
-15834,04	461,00
-15796,10	515,00
-15758,27	507,00
-15720,54	408,00
-15682,91	428,00
-15645,39	486,00
-15607,97	478,00
-15570,64	377,00
-15533,42	487,00
-15496,30	464,00
-15459,28	369,00
-15422,36	392,00
-15385,54	356,00
-15348,82	425,00
-15312,19	468,00
-15275,66	429,00
-15239,23	546,00
-15202,90	411,00
-15166,67	313,00
-15130,53	484,00
-15094,48	437,00
-15058,54	358,00
-15022,68	390,00
-14986,93	340,00
-14951,26	513,00
-14915,69	451,00
-14880,22	372,00
-14844,84	370,00
-14809,55	434,00
-14774,35	336,00
-14739,25	446,00
-14704,24	497,00
-14669,32	408,00
-14634,49	308,00
-14599,75	481,00
-14565,10	435,00
-14530,55	449,00
-14496,08	504,00
-14461,70	492,00
-14427,41	417,00
-14393,21	319,00
-14359,10	400,00
-14325,07	435,00
-14291,14	396,00
-14257,29	434,00
-14223,52	433,00
-14189,85	460,00
-14156,26	455,00
-14122,76	340,00
-14089,34	359,00
-14056,01	431,00
-14022,76	431,00
-13989,60	455,00
-13956,52	453,00
-13923,53	478,00
-13890,62	358,00
-13857,79	413,00
-13825,05	367,00
-13792,39	393,00
-13759,81	432,00
-13727,31	431,00
-13694,90	492,00
-13662,57	493,00
-13630,31	560,00
-13598,14	419,00
-13566,05	378,00
-13534,05	404,00
-13502,12	491,00
-13470,27	378,00
-13438,50	537,00
-13406,80	308,00
-13375,19	438,00
-13343,66	413,00
-13312,20	433,00
-13280,83	410,00
-13249,53	507,00
-13218,30	237,00
-13187,16	413,00
-13156,09	557,00
-13125,10	433,00
-13094,18	451,00
-13063,34	358,00
-13032,58	432,00
-13001,89	415,00
-12971,28	395,00
-12940,74	421,00
-12910,27	440,00
-12879,88	387,00
-12849,57	465,00
-12819,33	400,00
-12789,16	446,00
-12759,06	444,00
-12729,04	328,00
-12699,09	269,00
-12669,21	383,00
-12639,41	418,00
-12609,68	369,00
-12580,02	351,00
-12550,43	485,00
-12520,91	381,00
-12491,46	387,00
-12462,08	358,00
-12432,77	352,00
-12403,54	341,00
-12374,37	345,00
-12345,27	442,00
-12316,24	340,00
-12287,29	393,00
-12258,40	342,00
-12229,57	439,00
-12200,82	398,00
-12172,14	448,00
-12143,52	295,00
-12114,97	376,00
-12086,49	412,00
-12058,07	463,00
-12029,73	420,00
-12001,44	522,00
-11973,23	434,00
-11945,08	413,00
-11917,00	421,00
-11888,98	365,00
-11861,03	579,00
-11833,15	433,00
-11805,32	450,00
-11777,57	420,00
-11749,88	421,00
-11722,25	381,00
-11694,69	413,00
-11667,19	425,00
-11639,75	556,00
-11612,38	417,00
-11585,07	431,00
-11557,83	428,00
-11530,65	492,00
-11503,53	415,00
-11476,47	357,00
-11449,48	430,00
-11422,54	458,00
-11395,67	487,00
-11368,86	425,00
-11342,11	431,00
-11315,43	356,00
-11288,80	402,00
-11262,23	405,00
-11235,73	383,00
-11209,28	621,00
-11182,90	415,00
-11156,57	340,00
-11130,31	539,00
-11104,10	446,00
-11077,96	361,00
-11051,87	394,00
-11025,84	332,00
-10999,87	415,00
-10973,96	425,00
-10948,11	349,00
-10922,31	470,00
-10896,58	384,00
-10870,90	423,00
-10845,28	478,00
-10819,71	336,00
-10794,20	484,00
-10768,75	375,00
-10743,36	382,00
-10718,02	399,00
-10692,74	373,00
-10667,52	483,00
-10642,35	367,00
-10617,24	456,00
-10592,18	448,00
-10567,18	384,00
-10542,23	438,00
-10517,34	440,00
-10492,51	450,00
-10467,72	377,00
-10443,00	385,00
-10418,32	458,00
-10393,70	541,00
-10369,14	386,00
-10344,63	333,00
-10320,17	405,00
-10295,77	397,00
-10271,42	430,00
-10247,12	484,00
-10222,88	529,00
-10198,68	377,00
-10174,54	481,00
-10150,46	557,00
-10126,42	517,00
-10102,44	445,00
-10078,51	378,00
-10054,63	527,00
-10030,80	470,00
-10007,03	597,00
-9983,30	466,00
-9959,63	526,00
-9936,01	625,00
-9912,44	513,00
-9888,92	520,00
-9865,44	426,00
-9842,02	432,00
-9818,65	596,00
-9795,33	421,00
-9772,06	612,00
-9748,84	477,00
-9725,67	519,00
-9702,55	549,00
-9679,47	555,00
-9656,45	705,00
-9633,47	460,00
-9610,55	546,00
-9587,67	624,00
-9564,84	774,00
-9542,06	725,00
-9519,32	763,00
-9496,64	823,00
-9474,00	732,00
-9451,41	744,00
-9428,87	812,00
-9406,37	859,00
-9383,92	770,00
-9361,52	790,00
-9339,17	918,00
-9316,86	866,00
-9294,60	899,00
-9272,38	1016,00
-9250,21	1093,00
-9228,09	1214,00
-9206,01	1156,00
-9183,98	1120,00
-9162,00	1068,00
-9140,06	1015,00
-9118,16	1060,00
-9096,31	946,00
-9074,51	1054,00
-9052,75	1030,00
-9031,04	1077,00
-9009,37	1013,00
-8987,74	1056,00
-8966,16	907,00
-8944,63	883,00
-8923,14	847,00
-8901,69	889,00
-8880,29	833,00
-8858,93	994,00
-8837,61	969,00
-8816,34	1021,00
-8795,11	981,00
-8773,92	749,00
-8752,78	905,00
-8731,68	755,00
-8710,62	1014,00
-8689,61	764,00
-8668,63	875,00
-8647,70	970,00
-8626,82	837,00
-8605,97	962,00
-8585,17	892,00
-8564,41	813,00
-8543,69	827,00
-8523,01	769,00
-8502,37	888,00
-8481,78	837,00
-8461,23	749,00
-8440,71	901,00
-8420,24	900,00
-8399,81	1001,00
-8379,42	800,00
-8359,08	886,00
-8338,77	743,00
-8318,50	704,00
-8298,27	754,00
-8278,09	779,00
-8257,94	784,00
-8237,83	873,00
-8217,76	846,00
-8197,74	864,00
-8177,75	871,00
-8157,80	706,00
-8137,89	744,00
-8118,02	724,00
-8098,19	778,00
-8078,40	849,00
-8058,65	739,00
-8038,93	807,00
-8019,26	735,00
-7999,62	857,00
-7980,02	724,00
-7960,46	654,00
-7940,94	648,00
-7921,46	699,00
-7902,01	728,00
-7882,60	709,00
-7863,23	700,00
-7843,90	658,00
-7824,61	702,00
-7805,35	816,00
-7786,13	744,00
-7766,95	756,00
-7747,80	771,00
-7728,69	720,00
-7709,62	647,00
-7690,59	794,00
-7671,59	788,00
-7652,63	666,00
-7633,70	668,00
-7614,81	758,00
-7595,96	686,00
-7577,15	717,00
-7558,37	636,00
-7539,62	652,00
-7520,91	595,00
-7502,24	541,00
-7483,60	718,00
-7465,00	746,00
-7446,44	746,00
-7427,91	581,00
-7409,41	584,00
-7390,95	657,00
-7372,53	450,00
-7354,14	643,00
-7335,78	517,00
-7317,46	544,00
-7299,18	548,00
-7280,92	597,00
-7262,71	703,00
-7244,52	676,00
-7226,38	699,00
-7208,26	540,00
-7190,18	584,00
-7172,14	568,00
-7154,12	673,00
-7136,15	555,00
-7118,20	694,00
-7100,29	709,00
-7082,41	669,00
-7064,57	668,00
-7046,76	613,00
-7028,98	507,00
-7011,24	669,00
-6993,53	515,00
-6975,85	540,00
-6958,20	490,00
-6940,59	484,00
-6923,01	552,00
-6905,46	640,00
-6887,94	508,00
-6870,46	-1562,00
-6853,01	667,00
-6835,59	615,00
-6818,21	598,00
-6800,85	536,00
-6783,53	566,00
-6766,24	460,00
-6748,98	520,00
-6731,76	457,00
-6714,56	460,00
-6697,40	511,00
-6680,26	497,00
-6663,16	426,00
-6646,09	511,00
-6629,05	584,00
-6612,05	594,00
-6595,07	469,00
-6578,13	644,00
-6561,21	452,00
-6544,33	589,00
-6527,47	387,00
-6510,65	394,00
-6493,86	302,00
-6477,10	448,00
-6460,36	576,00
-6443,66	474,00
-6426,99	417,00
-6410,35	491,00
-6393,74	497,00
-6377,16	455,00
-6360,61	483,00
-6344,09	433,00
-6327,59	354,00
-6311,13	558,00
-6294,70	522,00
-6278,29	493,00
-6261,92	448,00
-6245,58	563,00
-6229,26	542,00
-6212,97	573,00
-6196,72	442,00
-6180,49	499,00
-6164,29	380,00
-6148,12	491,00
-6131,98	497,00
-6115,86	429,00
-6099,78	437,00
-6083,72	472,00
-6067,69	442,00
-6051,69	370,00
-6035,72	453,00
-6019,78	474,00
-6003,87	472,00
-5987,98	428,00
-5972,12	473,00
-5956,29	464,00
-5940,49	391,00
-5924,71	531,00
-5908,96	482,00
-5893,24	393,00
-5877,55	476,00
-5861,89	503,00
-5846,25	350,00
-5830,64	489,00
-5815,05	360,00
-5799,50	406,00
-5783,97	513,00
-5768,47	380,00
-5752,99	550,00
-5737,55	404,00
-5722,12	443,00
-5706,73	473,00
-5691,36	521,00
-5676,02	475,00
-5660,71	389,00
-5645,42	430,00
-5630,16	460,00
-5614,92	551,00
-5599,71	350,00
-5584,53	480,00
-5569,37	389,00
-5554,24	1273,00
-5539,14	398,00
-5524,06	531,00
-5509,01	529,00
-5493,98	397,00
-5478,98	433,00
-5464,00	413,00
-5449,05	380,00
-5434,13	475,00
-5419,23	406,00
-5404,36	433,00
-5389,51	440,00
-5374,69	459,00
-5359,89	470,00
-5345,12	580,00
-5330,37	540,00
-5315,65	504,00
-5300,95	527,00
-5286,28	486,00
-5271,63	372,00
-5257,01	467,00
-5242,41	502,00
-5227,84	405,00
-5213,29	534,00
-5198,76	416,00
-5184,26	464,00
-5169,79	443,00
-5155,33	417,00
-5140,91	478,00
-5126,51	509,00
-5112,13	421,00
-5097,77	476,00
-5083,44	539,00
-5069,13	421,00
-5054,85	456,00
-5040,59	541,00
-5026,36	428,00
-5012,15	598,00
-4997,96	520,00
-4983,80	469,00
-4969,66	426,00
-4955,54	340,00
-4941,44	446,00
-4927,37	420,00
-4913,33	516,00
-4899,30	459,00
-4885,30	477,00
-4871,33	386,00
-4857,37	477,00
-4843,44	408,00
-4829,53	531,00
-4815,65	416,00
-4801,79	306,00
-4787,95	550,00
-4774,13	438,00
-4760,34	489,00
-4746,56	472,00
-4732,82	387,00
-4719,09	432,00
-4705,38	585,00
-4691,70	520,00
-4678,04	604,00
-4664,41	574,00
-4650,79	517,00
-4637,20	357,00
-4623,63	368,00
-4610,08	537,00
-4596,56	443,00
-4583,05	417,00
-4569,57	424,00
-4556,11	497,00
-4542,67	494,00
-4529,25	384,00
-4515,86	400,00
-4502,49	495,00
-4489,13	484,00
-4475,80	469,00
-4462,49	385,00
-4449,21	465,00
-4435,94	441,00
-4422,70	402,00
-4409,47	326,00
-4396,27	483,00
-4383,09	468,00
-4369,93	439,00
-4356,79	312,00
-4343,67	448,00
-4330,58	417,00
-4317,50	533,00
-4304,45	467,00
-4291,41	476,00
-4278,40	454,00
-4265,41	449,00
-4252,44	407,00
-4239,49	348,00
-4226,55	495,00
-4213,65	508,00
-4200,76	484,00
-4187,89	493,00
-4175,04	291,00
-4162,21	356,00
-4149,40	467,00
-4136,61	477,00
-4123,85	426,00
-4111,10	367,00
-4098,37	501,00
-4085,66	434,00
-4072,98	472,00
-4060,31	389,00
-4047,66	506,00
-4035,04	569,00
-4022,43	376,00
-4009,84	384,00
-3997,27	306,00
-3984,72	439,00
-3972,19	406,00
-3959,69	501,00
-3947,20	474,00
-3934,73	399,00
-3922,27	475,00
-3909,84	378,00
-3897,43	445,00
-3885,04	462,00
-3872,67	481,00
-3860,31	349,00
-3847,98	443,00
-3835,66	385,00
-3823,36	447,00
-3811,09	401,00
-3798,83	423,00
-3786,59	449,00
-3774,37	444,00
-3762,17	401,00
-3749,98	439,00
-3737,82	468,00
-3725,67	602,00
-3713,55	351,00
-3701,44	441,00
-3689,35	416,00
-3677,28	530,00
-3665,22	337,00
-3653,19	377,00
-3641,17	394,00
-3629,18	402,00
-3617,20	471,00
-3605,24	432,00
-3593,30	513,00
-3581,37	455,00
-3569,47	470,00
-3557,58	461,00
-3545,71	454,00
-3533,86	528,00
-3522,02	404,00
-3510,21	397,00
-3498,41	396,00
-3486,63	367,00
-3474,87	494,00
-3463,12	395,00
-3451,40	432,00
-3439,69	365,00
-3428,00	343,00
-3416,33	471,00
-3404,67	339,00
-3393,03	454,00
-3381,41	441,00
-3369,81	483,00
-3358,22	501,00
-3346,66	510,00
-3335,10	465,00
-3323,57	389,00
-3312,06	508,00
-3300,56	454,00
-3289,08	394,00
-3277,61	386,00
-3266,16	442,00
-3254,73	416,00
-3243,32	376,00
-3231,92	357,00
-3220,55	501,00
-3209,18	552,00
-3197,84	406,00
-3186,51	382,00
-3175,20	395,00
-3163,90	396,00
-3152,63	499,00
-3141,36	413,00
-3130,12	387,00
-3118,89	428,00
-3107,68	446,00
-3096,49	501,00
-3085,31	345,00
-3074,15	410,00
-3063,00	493,00
-3051,87	450,00
-3040,76	398,00
-3029,67	507,00
-3018,59	575,00
-3007,52	606,00
-2996,48	387,00
-2985,44	407,00
-2974,43	414,00
-2963,43	344,00
-2952,45	492,00
-2941,48	433,00
-2930,53	469,00
-2919,60	337,00
-2908,68	379,00
-2897,78	340,00
-2886,89	483,00
-2876,02	482,00
-2865,17	300,00
-2854,33	481,00
-2843,50	406,00
-2832,70	393,00
-2821,90	391,00
-2811,13	538,00
-2800,37	461,00
-2789,62	319,00
-2778,89	469,00
-2768,18	492,00
-2757,48	466,00
-2746,80	508,00
-2736,13	411,00
-2725,48	502,00
-2714,84	326,00
-2704,22	439,00
-2693,61	503,00
-2683,02	403,00
-2672,45	466,00
-2661,89	416,00
-2651,34	452,00
-2640,81	392,00
-2630,30	478,00
-2619,80	360,00
-2609,31	508,00
-2598,84	467,00
-2588,39	487,00
-2577,95	413,00
-2567,52	286,00
-2557,11	421,00
-2546,71	394,00
-2536,33	511,00
-2525,97	464,00
-2515,62	406,00
-2505,28	386,00
-2494,96	388,00
-2484,65	483,00
-2474,36	653,00
-2464,08	343,00
-2453,82	502,00
-2443,57	408,00
-2433,33	301,00
-2423,11	452,00
-2412,91	433,00
-2402,72	515,00
-2392,54	437,00
-2382,38	455,00
-2372,23	514,00
-2362,09	-2594,00
-2351,97	485,00
-2341,87	396,00
-2331,78	502,00
-2321,70	464,00
-2311,64	475,00
-2301,59	475,00
-2291,55	425,00
-2281,53	506,00
-2271,53	375,00
-2261,53	489,00
-2251,55	402,00
-2241,59	406,00
-2231,64	456,00
-2221,70	395,00
-2211,78	409,00
-2201,87	459,00
-2191,97	506,00
-2182,09	493,00
-2172,22	519,00
-2162,37	412,00
-2152,53	357,00
-2142,70	435,00
-2132,89	357,00
-2123,09	378,00
-2113,30	342,00
-2103,53	460,00
-2093,77	460,00
-2084,02	454,00
-2074,29	451,00
-2064,57	473,00
-2054,86	499,00
-2045,17	588,00
-2035,49	376,00
-2025,82	410,00
-2016,17	394,00
-2006,53	356,00
-1996,91	404,00
-1987,29	391,00
-1977,69	442,00
-1968,11	364,00
-1958,53	446,00
-1948,97	341,00
-1939,42	497,00
-1929,89	444,00
-1920,37	399,00
-1910,86	399,00
-1901,36	429,00
-1891,88	435,00
-1882,41	415,00
-1872,95	514,00
-1863,51	432,00
-1854,08	348,00
-1844,66	445,00
-1835,26	510,00
-1825,86	510,00
-1816,48	347,00
-1807,11	468,00
-1797,76	432,00
-1788,42	520,00
-1779,09	453,00
-1769,77	435,00
-1760,47	526,00
-1751,17	334,00
-1741,89	404,00
-1732,63	512,00
-1723,37	534,00
-1714,13	486,00
-1704,90	443,00
-1695,68	512,00
-1686,48	442,00
-1677,29	371,00
-1668,11	467,00
-1658,94	414,00
-1649,78	397,00
-1640,64	416,00
-1631,51	423,00
-1622,39	469,00
-1613,28	437,00
-1604,19	492,00
-1595,10	395,00
-1586,03	393,00
-1576,97	457,00
-1567,93	419,00
-1558,89	464,00
-1549,87	523,00
-1540,86	387,00
-1531,86	465,00
-1522,87	420,00
-1513,90	522,00
-1504,93	460,00
-1495,98	530,00
-1487,04	433,00
-1478,12	361,00
-1469,20	461,00
-1460,30	486,00
-1451,40	474,00
-1442,52	446,00
-1433,65	519,00
-1424,80	423,00
-1415,95	428,00
-1407,12	542,00
-1398,30	345,00
-1389,48	461,00
-1380,69	373,00
-1371,90	417,00
-1363,12	486,00
-1354,36	581,00
-1345,60	436,00
-1336,86	445,00
-1328,13	484,00
-1319,41	447,00
-1310,70	371,00
-1302,01	387,00
-1293,32	339,00
-1284,65	511,00
-1275,99	489,00
-1267,33	366,00
-1258,69	539,00
-1250,06	385,00
-1241,45	338,00
-1232,84	537,00
-1224,25	515,00
-1215,66	427,00
-1207,09	438,00
-1198,53	432,00
-1189,97	398,00
-1181,43	383,00
-1172,91	376,00
-1164,39	510,00
-1155,88	429,00
-1147,38	349,00
-1138,90	380,00
-1130,43	432,00
-1121,96	471,00
-1113,51	455,00
-1105,07	447,00
-1096,64	523,00
-1088,22	528,00
-1079,81	484,00
-1071,41	493,00
-1063,02	391,00
-1054,65	494,00
-1046,28	444,00
-1037,92	419,00
-1029,58	429,00
-1021,24	448,00
-1012,92	622,00
-1004,61	397,00
-996,30	594,00
-988,01	365,00
-979,73	497,00
-971,46	471,00
-963,20	400,00
-954,95	450,00
-946,71	512,00
-938,48	473,00
-930,26	538,00
-922,06	355,00
-913,86	411,00
-905,67	378,00
-897,49	493,00
-889,33	351,00
-881,17	515,00
-873,02	549,00
-864,89	382,00
-856,76	391,00
-848,65	422,00
-840,54	475,00
-832,45	489,00
-824,36	460,00
-816,29	495,00
-808,22	422,00
-800,17	555,00
-792,12	397,00
-784,09	476,00
-776,06	406,00
-768,05	454,00
-760,04	469,00
-752,05	388,00
-744,07	414,00
-736,09	504,00
-728,13	311,00
-720,17	437,00
-712,23	365,00
-704,29	371,00
-696,37	396,00
-688,45	518,00
-680,55	393,00
-672,65	478,00
-664,77	440,00
-656,89	454,00
-649,03	440,00
-641,17	534,00
-633,32	396,00
-625,49	479,00
-617,66	411,00
-609,84	484,00
-602,03	339,00
-594,23	395,00
-586,45	430,00
-578,67	413,00
-570,90	449,00
-563,14	392,00
-555,39	549,00
-547,65	475,00
-539,91	406,00
-532,19	461,00
-524,48	480,00
-516,78	345,00
-509,08	494,00
-501,40	442,00
-493,72	430,00
-486,06	459,00
-478,40	511,00
-470,76	367,00
-463,12	437,00
-455,49	392,00
-447,87	491,00
-440,26	413,00
-432,66	440,00
-425,07	478,00
-417,49	466,00
-409,92	327,00
-402,35	319,00
-394,80	374,00
-387,25	406,00
-379,72	437,00
-372,19	557,00
-364,67	480,00
-357,17	459,00
-349,67	446,00
-342,18	441,00
-334,69	410,00
-327,22	424,00
-319,76	440,00
-312,30	480,00
-304,86	423,00
-297,42	487,00
-290,00	476,00
-282,58	451,00
-275,17	484,00
-267,77	534,00
-260,37	468,00
-252,99	526,00
-245,62	467,00
-238,25	493,00
-230,90	451,00
-223,55	514,00
-216,21	443,00
-208,88	634,00
-201,56	474,00
-194,25	605,00
-186,94	606,00
-179,65	592,00
-172,36	668,00
-165,08	621,00
-157,81	626,00
-150,55	742,00
-143,30	748,00
-136,06	744,00
-128,82	795,00
-121,60	789,00
-114,38	915,00
-107,17	962,00
-99,97	1107,00
-92,78	1071,00
-85,60	1201,00
-78,42	1328,00
-71,25	1456,00
-64,10	1634,00
-56,95	1779,00
-49,81	2032,00
-42,67	2623,00
-35,55	2938,00
-28,43	3859,00
-21,33	6310,00
-14,23	19474,00
-7,14	57498,00
-0,05	57284,00
7,02	57012,00
14,09	57319,00
21,14	17131,00
28,19	7431,00
35,23	4862,00
42,27	3958,00
49,29	3142,00
56,31	2774,00
63,32	2465,00
70,32	2102,00
77,31	1963,00
84,29	1639,00
91,27	1736,00
98,23	1549,00
105,19	1494,00
112,14	1940,00
119,09	3150,00
126,02	5587,00
132,95	6954,00
139,87	7242,00
146,78	7628,00
153,68	7578,00
160,58	7565,00
167,46	7503,00
174,34	7635,00
181,21	7623,00
188,08	7461,00
194,93	7613,00
201,78	7636,00
208,62	7626,00
215,45	7771,00
222,27	7784,00
229,09	7717,00
235,90	7593,00
242,70	7636,00
249,49	7788,00
256,27	7710,00
263,05	7465,00
269,82	7672,00
276,58	7698,00
283,33	7555,00
290,08	7478,00
296,82	7635,00
303,55	7394,00
310,27	7343,00
316,98	7352,00
323,69	7345,00
330,39	7267,00
337,08	7385,00
343,76	7490,00
350,44	7408,00
357,11	7315,00
363,77	7368,00
370,42	7409,00
377,07	7296,00
383,71	7268,00
390,34	7272,00
396,96	7513,00
403,58	7425,00
410,19	7540,00
416,79	7450,00
423,38	7438,00
429,97	7358,00
436,55	7276,00
443,12	7097,00
449,68	7141,00
456,24	7010,00
462,79	7028,00
469,33	7023,00
475,86	7089,00
482,39	7023,00
488,91	6956,00
495,42	7075,00
501,93	7008,00
508,42	6933,00
514,91	6765,00
521,40	6896,00
527,87	6682,00
534,34	6596,00
540,80	6727,00
547,25	6895,00
553,70	6875,00
560,14	6801,00
566,57	6850,00
573,00	6836,00
579,41	6766,00
585,83	6876,00
592,23	6652,00
598,62	6647,00
605,01	6658,00
611,40	6697,00
617,77	6601,00
624,14	6659,00
630,50	6638,00
636,85	6545,00
643,20	6526,00
649,54	6624,00
655,87	6486,00
662,20	6461,00
668,52	6431,00
674,83	6481,00
681,13	6301,00
687,43	6447,00
693,72	6331,00
700,00	6253,00
706,28	6259,00
712,55	6235,00
718,81	6342,00
725,07	6185,00
731,32	6279,00
737,56	6346,00
743,79	6340,00
750,02	6272,00
756,24	6171,00
762,46	6285,00
768,67	6268,00
774,87	6185,00
781,06	6234,00
787,25	6247,00
793,43	6282,00
799,60	6163,00
805,77	6281,00
811,93	6228,00
818,08	6159,00
824,23	6095,00
830,37	6222,00
836,50	5971,00
842,63	6013,00
848,75	5966,00
854,87	5933,00
860,97	6022,00
867,07	5990,00
873,17	6034,00
879,25	5927,00
885,33	5958,00
891,41	5963,00
897,47	5971,00
903,53	5828,00
909,59	5937,00
915,63	5820,00
921,67	5828,00
927,71	5843,00
933,74	5712,00
939,76	5762,00
945,77	5682,00
951,78	5816,00
957,78	5774,00
963,78	5784,00
969,77	5868,00
975,75	5633,00
981,72	5702,00
987,69	6410,00
993,66	5910,00
999,61	5838,00
1005,56	5800,00
1011,51	5730,00
1017,44	5785,00
1023,37	5701,00
1029,30	5699,00
1035,22	5771,00
1041,13	5802,00
1047,03	5738,00
1052,93	5827,00
1058,83	6001,00
1064,71	5950,00
1070,59	5971,00
1076,47	5778,00
1082,33	5796,00
1088,20	5695,00
1094,05	5610,00
1099,90	5563,00
1105,74	5620,00
1111,58	5562,00
1117,41	5574,00
1123,23	5728,00
1129,05	5907,00
1134,86	5902,00
1140,67	5585,00
1146,47	5671,00
1152,26	5592,00
1158,05	5619,00
1163,83	5558,00
1169,60	5628,00
1175,37	5528,00
1181,13	5521,00
1186,89	5540,00
1192,64	5604,00
1198,38	5616,00
1204,12	5431,00
1209,85	5528,00
1215,58	5453,00
1221,30	5652,00
1227,02	5589,00
1232,72	5513,00
1238,43	5469,00
1244,12	5449,00
1249,81	5671,00
1255,50	5606,00
1261,17	5582,00
1266,85	5586,00
1272,51	5573,00
1278,17	5597,00
1283,83	5609,00
1289,47	5765,00
1295,12	5952,00
1300,75	5853,00
1306,38	5832,00
1312,01	5638,00
1317,63	5481,00
1323,24	5579,00
1328,85	5573,00
1334,45	5514,00
1340,04	5479,00
1345,63	5559,00
1351,22	5564,00
1356,80	5508,00
1362,37	5631,00
1367,93	5637,00
1373,49	5658,00
1379,05	5642,00
1384,60	5538,00
1390,14	5620,00
1395,68	5506,00
1401,21	5717,00
1406,74	5559,00
1412,26	5692,00
1417,77	5924,00
1423,28	5714,00
1428,78	5870,00
1434,28	6112,00
1439,77	6042,00
1445,26	6054,00
1450,74	6077,00
1456,22	5956,00
1461,68	5887,00
1467,15	5895,00
1472,61	5572,00
1478,06	5645,00
1483,51	5620,00
1488,95	5312,00
1494,38	5427,00
1499,81	5327,00
1505,24	5308,00
1510,65	5311,00
1516,07	5279,00
1521,48	5272,00
1526,88	5206,00
1532,27	5141,00
1537,67	5121,00
1543,05	5150,00
1548,43	5141,00
1553,81	5162,00
1559,18	4958,00
1564,54	5062,00
1569,90	5007,00
1575,25	4913,00
1580,60	4904,00
1585,94	5144,00
1591,28	5032,00
1596,61	5029,00
1601,93	4992,00
1607,25	5037,00
1612,57	4883,00
1617,88	4881,00
1623,18	5014,00
1628,48	4816,00
1633,77	4857,00
1639,06	4924,00
1644,34	4840,00
1649,62	4742,00
1654,89	4702,00
1660,16	4718,00
1665,42	4703,00
1670,67	4810,00
1675,92	4636,00
1681,17	4668,00
1686,41	4600,00
1691,64	4685,00
1696,87	4742,00
1702,10	4725,00
1707,32	4602,00
1712,53	4566,00
1717,74	4499,00
1722,94	4645,00
1728,14	4452,00
1733,33	4613,00
1738,52	4286,00
1743,70	4368,00
1748,88	4345,00
1754,05	4401,00
1759,22	4252,00
1764,38	4433,00
1769,53	4342,00
1774,69	4310,00
1779,83	4190,00
1784,97	4266,00
1790,11	4191,00
1795,24	4189,00
1800,36	4108,00
1805,48	4046,00
1810,60	4241,00
1815,71	4112,00
1820,82	4029,00
1825,92	4133,00
1831,01	4208,00
1836,10	4130,00
1841,19	4187,00
1846,26	4015,00
1851,34	4139,00
1856,41	4022,00
1861,47	4122,00
1866,53	4131,00
1871,59	4102,00
1876,64	4038,00
1881,68	3991,00
1886,72	4055,00
1891,76	3992,00
1896,79	3838,00
1901,81	3811,00
1906,83	3841,00
1911,85	3805,00
1916,86	3674,00
1921,86	3751,00
1926,86	3733,00
1931,86	3754,00
1936,85	3839,00
1941,83	3580,00
1946,81	3688,00
1951,79	3462,00
1956,76	3571,00
1961,72	3576,00
1966,68	3629,00
1971,64	3478,00
1976,59	3591,00
1981,54	3559,00
1986,48	3553,00
1991,42	3380,00
1996,35	3567,00
2001,27	3483,00
2006,20	3494,00
2011,11	3449,00
2016,03	3427,00
2020,93	3370,00
2025,84	3448,00
2030,73	3482,00
2035,63	3346,00
2040,52	3350,00
2045,40	3404,00
2050,28	3294,00
2055,15	3435,00
2060,02	3277,00
2064,89	3335,00
2069,75	3322,00
2074,60	3225,00
2079,46	3228,00
2084,30	3330,00
2089,14	3195,00
2093,98	3301,00
2098,81	3184,00
2103,64	3257,00
2108,46	3272,00
2113,28	3300,00
2118,09	3205,00
2122,90	3228,00
2127,70	3204,00
2132,50	3204,00
2137,30	3196,00
2142,09	3144,00
2146,87	3038,00
2151,66	3104,00
2156,43	2987,00
2161,20	3105,00
2165,97	3201,00
2170,73	3040,00
2175,49	3129,00
2180,24	3039,00
2184,99	3237,00
2189,74	3098,00
2194,48	3001,00
2199,21	3067,00
2203,94	3009,00
2208,67	2882,00
2213,39	2797,00
2218,11	2940,00
2222,82	2901,00
2227,53	2981,00
2232,23	2828,00
2236,93	2837,00
2241,63	2794,00
2246,32	2946,00
2251,00	2802,00
2255,68	2907,00
2260,36	2763,00
2265,03	2868,00
2269,70	2965,00
2274,36	2840,00
2279,02	2872,00
2283,68	2707,00
2288,33	2761,00
2292,97	2707,00
2297,61	2702,00
2302,25	2774,00
2306,88	2729,00
2311,51	2615,00
2316,14	2636,00
2320,75	2629,00
2325,37	2625,00
2329,98	2614,00
2334,59	2697,00
2339,19	2484,00
2343,79	2485,00
2348,38	2580,00
2352,97	2487,00
2357,55	2581,00
2362,13	2590,00
2366,71	2522,00
2371,28	2615,00
2375,85	2522,00
2380,41	2464,00
2384,97	2430,00
2389,52	2403,00
2394,07	2451,00
2398,62	2363,00
2403,16	2508,00
2407,70	2280,00
2412,23	2305,00
2416,76	2388,00
2421,29	2382,00
2425,81	2455,00
2430,32	2439,00
2434,84	2282,00
2439,34	2325,00
2443,85	2344,00
2448,35	2183,00
2452,84	2225,00
2457,33	2289,00
2461,82	2170,00
2466,30	2185,00
2470,78	2215,00
2475,25	2227,00
2479,72	2209,00
2484,19	2255,00
2488,65	2197,00
2493,11	2073,00
2497,56	2170,00
2502,01	2063,00
2506,46	2050,00
2510,90	2068,00
2515,34	2042,00
2519,77	2170,00
2524,20	2025,00
2528,62	2122,00
2533,04	2099,00
2537,46	2048,00
2541,87	2034,00
2546,28	1977,00
2550,68	1969,00
2555,08	2060,00
2559,48	1930,00
2563,87	1833,00
2568,26	1797,00
2572,64	1966,00
2577,02	1939,00
2581,40	1754,00
2585,77	1927,00
2590,14	1849,00
2594,50	1820,00
2598,86	1858,00
2603,22	1864,00
2607,57	1705,00
2611,92	1773,00
2616,26	1968,00
2620,60	1847,00
2624,94	1795,00
2629,27	1843,00
2633,60	1770,00
2637,92	1800,00
2642,24	1849,00
2646,56	1754,00
2650,87	1629,00
2655,18	1791,00
2659,48	1578,00
2663,78	1665,00
2668,08	1727,00
2672,37	1627,00
2676,66	1649,00
2680,95	1611,00
2685,23	1773,00
2689,50	1577,00
2693,78	1702,00
2698,05	1613,00
2702,31	1575,00
2706,57	1679,00
2710,83	1771,00
2715,08	1757,00
2719,33	1771,00
2723,58	1656,00
2727,82	1705,00
2732,06	1686,00
2736,29	1611,00
2740,53	1660,00
2744,75	1547,00
2748,97	1573,00
2753,19	1659,00
2757,41	1597,00
2761,62	1571,00
2765,83	1557,00
2770,03	1527,00
2774,23	1680,00
2778,43	1507,00
2782,62	1612,00
2786,81	1528,00
2791,00	1494,00
2795,18	1515,00
2799,35	1552,00
2803,53	1551,00
2807,70	1466,00
2811,86	1547,00
2816,03	1618,00
2820,19	1527,00
2824,34	1509,00
2828,49	1490,00
2832,64	1619,00
2836,78	1727,00
2840,92	1742,00
2845,06	1934,00
2849,19	2033,00
2853,32	2056,00
2857,45	1968,00
2861,57	1996,00
2865,69	1974,00
2869,80	1863,00
2873,91	1918,00
2878,02	2059,00
2882,12	2061,00
2886,22	2067,00
2890,32	2015,00
2894,41	2019,00
2898,50	1879,00
2902,58	1906,00
2906,67	1758,00
2910,74	1712,00
2914,82	1646,00
2918,89	1755,00
2922,96	1606,00
2927,02	1476,00
2931,08	1571,00
2935,13	1356,00
2939,19	1492,00
2943,24	1369,00
2947,28	1461,00
2951,32	1293,00
2955,36	1298,00
2959,40	1361,00
2963,43	1238,00
2967,46	1300,00
2971,48	1205,00
2975,50	1128,00
2979,52	1301,00
2983,53	1150,00
2987,54	1182,00
2991,55	1159,00
2995,55	1135,00
2999,55	1071,00
3003,54	1049,00
3007,54	1134,00
3011,53	1146,00
3015,51	1071,00
3019,49	1090,00
3023,47	960,00
3027,45	1146,00
3031,42	1010,00
3035,39	1056,00
3039,35	1081,00
3043,31	1102,00
3047,27	1017,00
3051,22	1080,00
3055,17	907,00
3059,12	1027,00
3063,06	964,00
3067,00	936,00
3070,94	934,00
3074,87	962,00
3078,80	903,00
3082,73	978,00
3086,65	977,00
3090,57	929,00
3094,49	978,00
3098,40	952,00
3102,31	916,00
3106,22	920,00
3110,12	928,00
3114,02	876,00
3117,92	846,00
3121,81	854,00
3125,70	870,00
3129,58	850,00
3133,47	786,00
3137,34	934,00
3141,22	938,00
3145,09	889,00
3148,96	884,00
3152,83	901,00
3156,69	932,00
3160,55	805,00
3164,40	893,00
3168,26	857,00
3172,10	877,00
3175,95	778,00
3179,79	863,00
3183,63	870,00
3187,47	804,00
3191,30	840,00
3195,13	798,00
3198,95	723,00
3202,78	873,00
3206,60	726,00
3210,41	743,00
3214,23	765,00
3218,03	772,00
3221,84	733,00
3225,64	774,00
3229,44	693,00
3233,24	825,00
3237,03	747,00
3240,82	730,00
3244,61	625,00
3248,39	760,00
3252,17	762,00
3255,95	832,00
3259,72	810,00
3263,49	795,00
3267,26	711,00
3271,03	747,00
3274,79	717,00
3278,54	735,00
3282,30	690,00
3286,05	661,00
3289,80	760,00
3293,54	657,00
3297,29	699,00
3301,02	637,00
3304,76	710,00
3308,49	733,00
3312,22	618,00
3315,95	704,00
3319,67	643,00
3323,39	772,00
3327,10	607,00
3330,82	571,00
3334,53	686,00
3338,24	655,00
3341,94	579,00
3345,64	614,00
3349,34	589,00
3353,03	658,00
3356,72	668,00
3360,41	601,00
3364,10	507,00
3367,78	617,00
3371,46	502,00
3375,13	604,00
3378,81	644,00
3382,48	576,00
3386,14	648,00
3389,81	658,00
3393,47	540,00
3397,12	723,00
3400,78	610,00
3404,43	522,00
3408,08	683,00
3411,72	501,00
3415,36	550,00
3419,00	614,00
3422,64	581,00
3426,27	537,00
3429,90	638,00
3433,53	560,00
3437,15	539,00
3440,77	513,00
3444,39	504,00
3448,00	598,00
3451,62	488,00
3455,22	628,00
3458,83	501,00
3462,43	568,00
3466,03	562,00
3469,63	434,00
3473,22	540,00
3476,81	489,00
3480,40	597,00
3483,99	535,00
3487,57	493,00
3491,15	525,00
3494,72	618,00
3498,29	558,00
3501,86	469,00
3505,43	600,00
3508,99	474,00
3512,56	371,00
3516,11	509,00
3519,67	503,00
3523,22	494,00
3526,77	460,00
3530,32	680,00
3533,86	543,00
3537,40	483,00
3540,94	495,00
3544,47	542,00
3548,00	445,00
3551,53	476,00
3555,06	449,00
3558,58	553,00
3562,10	513,00
3565,62	404,00
3569,13	483,00
3572,64	595,00
3576,15	443,00
3579,66	422,00
3583,16	459,00
3586,66	482,00
3590,16	458,00
3593,65	414,00
3597,14	423,00
3600,63	496,00
3604,11	465,00
3607,60	409,00
3611,08	462,00
3614,55	468,00
3618,03	414,00
3621,50	387,00
3624,97	407,00
3628,43	375,00
3631,90	402,00
3635,36	408,00
3638,81	423,00
3642,27	440,00
3645,72	432,00
3649,17	366,00
3652,61	399,00
3656,06	393,00
3659,50	425,00
3662,93	423,00
3666,37	496,00
3669,80	600,00
3673,23	509,00
3676,65	383,00
3680,08	435,00
3683,50	423,00
3686,92	416,00
3690,33	453,00
3693,74	419,00
3697,15	426,00
3700,56	474,00
3703,96	451,00
3707,36	343,00
3710,76	471,00
3714,16	390,00
3717,55	402,00
3720,94	311,00
3724,33	438,00
3727,71	414,00
3731,10	390,00
3734,48	431,00
3737,85	375,00
3741,23	388,00
3744,60	390,00
3747,97	325,00
3751,33	473,00
3754,69	387,00
3758,05	338,00
3761,41	396,00
3764,77	340,00
3768,12	415,00
3771,47	338,00
3774,82	355,00
3778,16	-1,00
3781,50	7,00
3784,84	1,00
3788,18	8,00
>>>>>End Processed Spectral Data<<<<<
