SpectraSuite Data File
++++++++++++++++++++++++++++++++++++
Date: Mon Jan 05 16:26:10 ICT 2026
User: Administrator
Dark Spectrum Present: Yes
Reference Spectrum Present: No
Number of Sampled Component Spectra: 1
Spectrometers: MAYP113682
Integration Time (usec): 3000000 (MAYP113682)
Spectra Averaged: 1 (MAYP113682)
Boxcar Smoothing: 0 (MAYP113682)
Correct for Electrical Dark: No (MAYP113682)
Strobe/Lamp Enabled: No (MAYP113682)
Correct for Detector Non-linearity: No (MAYP113682)
Correct for Stray Light: No (MAYP113682)
Number of Pixels in Processed Spectrum: 2068
>>>>>Begin Processed Spectral Data<<<<<
-37534,58	16,00
-37414,56	6,00
-37295,11	2,00
-37176,24	-3,00
-37057,95	306,00
-36940,22	335,00
-36823,05	403,00
-36706,45	416,00
-36590,40	366,00
-36474,90	428,00
-36359,95	430,00
-36245,55	496,00
-36131,68	420,00
-36018,35	423,00
-35905,55	361,00
-35793,29	489,00
-35681,54	310,00
-35570,32	362,00
-35459,62	456,00
-35349,43	514,00
-35239,75	446,00
-35130,58	448,00
-35021,91	411,00
-34913,74	465,00
-34806,07	429,00
-34698,89	435,00
-34592,20	413,00
-34486,00	481,00
-34380,28	490,00
-34275,04	343,00
-34170,27	394,00
-34065,98	481,00
-33962,16	457,00
-33858,81	536,00
-33755,92	411,00
-33653,49	546,00
-33551,52	546,00
-33450,01	524,00
-33348,94	494,00
-33248,33	403,00
-33148,16	438,00
-33048,43	444,00
-32949,14	587,00
-32850,29	545,00
-32751,87	410,00
-32653,89	497,00
-32556,33	513,00
-32459,20	426,00
-32362,49	459,00
-32266,19	479,00
-32170,32	342,00
-32074,86	449,00
-31979,82	531,00
-31885,18	520,00
-31790,95	493,00
-31697,12	570,00
-31603,69	532,00
-31510,67	487,00
-31418,04	545,00
-31325,80	470,00
-31233,95	377,00
-31142,49	463,00
-31051,42	415,00
-30960,73	564,00
-30870,43	500,00
-30780,50	473,00
-30690,95	476,00
-30601,77	533,00
-30512,97	435,00
-30424,53	510,00
-30336,46	476,00
-30248,76	465,00
-30161,42	630,00
-30074,44	410,00
-29987,81	499,00
-29901,55	627,00
-29815,63	433,00
-29730,07	477,00
-29644,86	495,00
-29560,00	555,00
-29475,48	491,00
-29391,30	488,00
-29307,47	488,00
-29223,97	422,00
-29140,81	434,00
-29057,99	568,00
-28975,50	435,00
-28893,34	522,00
-28811,51	436,00
-28730,00	536,00
-28648,82	439,00
-28567,97	482,00
-28487,43	504,00
-28407,21	467,00
-28327,32	422,00
-28247,73	602,00
-28168,46	465,00
-28089,50	519,00
-28010,85	442,00
-27932,51	470,00
-27854,48	415,00
-27776,75	468,00
-27699,32	477,00
-27622,19	429,00
-27545,37	552,00
-27468,84	510,00
-27392,60	585,00
-27316,66	507,00
-27241,01	542,00
-27165,66	441,00
-27090,59	372,00
-27015,81	529,00
-26941,31	494,00
-26867,10	504,00
-26793,17	487,00
-26719,52	393,00
-26646,15	458,00
-26573,06	414,00
-26500,24	479,00
-26427,70	529,00
-26355,43	427,00
-26283,43	521,00
-26211,71	497,00
-26140,25	547,00
-26069,06	552,00
-25998,13	475,00
-25927,46	453,00
-25857,06	429,00
-25786,92	476,00
-25717,04	498,00
-25647,42	562,00
-25578,05	431,00
-25508,94	480,00
-25440,09	551,00
-25371,48	481,00
-25303,13	583,00
-25235,02	506,00
-25167,17	488,00
-25099,56	599,00
-25032,19	529,00
-24965,07	369,00
-24898,20	428,00
-24831,56	325,00
-24765,17	437,00
-24699,01	316,00
-24633,10	596,00
-24567,41	462,00
-24501,97	458,00
-24436,75	477,00
-24371,77	482,00
-24307,03	354,00
-24242,51	403,00
-24178,22	395,00
-24114,16	426,00
-24050,32	472,00
-23986,71	513,00
-23923,32	542,00
-23860,16	421,00
-23797,22	465,00
-23734,50	473,00
-23672,00	465,00
-23609,71	485,00
-23547,65	424,00
-23485,80	539,00
-23424,16	411,00
-23362,74	595,00
-23301,53	433,00
-23240,54	339,00
-23179,75	450,00
-23119,17	438,00
-23058,80	398,00
-22998,64	569,00
-22938,68	512,00
-22878,93	466,00
-22819,39	314,00
-22760,04	344,00
-22700,90	502,00
-22641,96	480,00
-22583,22	465,00
-22524,68	491,00
-22466,33	366,00
-22408,19	475,00
-22350,23	479,00
-22292,48	410,00
-22234,92	470,00
-22177,55	464,00
-22120,37	528,00
-22063,38	442,00
-22006,58	468,00
-21949,98	432,00
-21893,56	428,00
-21837,33	561,00
-21781,28	376,00
-21725,42	532,00
-21669,74	531,00
-21614,25	502,00
-21558,94	434,00
-21503,81	468,00
-21448,86	568,00
-21394,10	451,00
-21339,51	503,00
-21285,10	389,00
-21230,86	383,00
-21176,81	490,00
-21122,93	448,00
-21069,22	365,00
-21015,69	463,00
-20962,33	490,00
-20909,14	454,00
-20856,13	473,00
-20803,28	521,00
-20750,61	456,00
-20698,10	394,00
-20645,76	491,00
-20593,59	463,00
-20541,59	476,00
-20489,75	527,00
-20438,07	390,00
-20386,56	451,00
-20335,22	493,00
-20284,03	460,00
-20233,01	364,00
-20182,15	428,00
-20131,45	459,00
-20080,91	351,00
-20030,52	409,00
-19980,30	449,00
-19930,23	352,00
-19880,32	465,00
-19830,56	457,00
-19780,96	471,00
-19731,52	472,00
-19682,23	510,00
-19633,09	377,00
-19584,10	363,00
-19535,26	496,00
-19486,58	474,00
-19438,04	472,00
-19389,66	503,00
-19341,42	463,00
-19293,33	411,00
-19245,39	419,00
-19197,60	549,00
-19149,95	478,00
-19102,45	501,00
-19055,09	402,00
-19007,87	441,00
-18960,80	517,00
-18913,87	452,00
-18867,09	437,00
-18820,44	538,00
-18773,94	466,00
-18727,57	533,00
-18681,35	424,00
-18635,26	410,00
-18589,31	436,00
-18543,50	492,00
-18497,83	436,00
-18452,29	485,00
-18406,89	358,00
-18361,63	518,00
-18316,50	544,00
-18271,50	477,00
-18226,63	541,00
-18181,90	528,00
-18137,30	433,00
-18092,84	459,00
-18048,50	504,00
-18004,29	397,00
-17960,22	408,00
-17916,27	432,00
-17872,45	489,00
-17828,76	522,00
-17785,20	390,00
-17741,77	474,00
-17698,46	491,00
-17655,28	485,00
-17612,22	503,00
-17569,29	441,00
-17526,48	518,00
-17483,79	555,00
-17441,23	408,00
-17398,79	439,00
-17356,48	412,00
-17314,28	506,00
-17272,21	440,00
-17230,26	533,00
-17188,42	477,00
-17146,71	448,00
-17105,12	435,00
-17063,64	438,00
-17022,28	467,00
-16981,04	335,00
-16939,92	468,00
-16898,91	611,00
-16858,02	293,00
-16817,25	478,00
-16776,59	449,00
-16736,04	406,00
-16695,61	494,00
-16655,29	426,00
-16615,09	450,00
-16574,99	495,00
-16535,01	467,00
-16495,15	509,00
-16455,39	449,00
-16415,74	426,00
-16376,21	411,00
-16336,78	439,00
-16297,46	451,00
-16258,26	401,00
-16219,16	497,00
-16180,17	486,00
-16141,28	469,00
-16102,51	453,00
-16063,84	447,00
-16025,27	447,00
-15986,82	390,00
-15948,46	420,00
-15910,22	474,00
-15872,07	479,00
-15834,04	450,00
-15796,10	445,00
-15758,27	567,00
-15720,54	519,00
-15682,91	459,00
-15645,39	532,00
-15607,97	451,00
-15570,64	401,00
-15533,42	467,00
-15496,30	466,00
-15459,28	478,00
-15422,36	456,00
-15385,54	423,00
-15348,82	549,00
-15312,19	503,00
-15275,66	362,00
-15239,23	450,00
-15202,90	505,00
-15166,67	468,00
-15130,53	523,00
-15094,48	503,00
-15058,54	420,00
-15022,68	451,00
-14986,93	362,00
-14951,26	518,00
-14915,69	486,00
-14880,22	423,00
-14844,84	457,00
-14809,55	378,00
-14774,35	438,00
-14739,25	429,00
-14704,24	531,00
-14669,32	400,00
-14634,49	328,00
-14599,75	488,00
-14565,10	449,00
-14530,55	441,00
-14496,08	481,00
-14461,70	520,00
-14427,41	475,00
-14393,21	367,00
-14359,10	420,00
-14325,07	441,00
-14291,14	415,00
-14257,29	425,00
-14223,52	493,00
-14189,85	477,00
-14156,26	520,00
-14122,76	386,00
-14089,34	332,00
-14056,01	515,00
-14022,76	373,00
-13989,60	523,00
-13956,52	567,00
-13923,53	391,00
-13890,62	403,00
-13857,79	424,00
-13825,05	457,00
-13792,39	456,00
-13759,81	477,00
-13727,31	403,00
-13694,90	469,00
-13662,57	529,00
-13630,31	477,00
-13598,14	437,00
-13566,05	395,00
-13534,05	465,00
-13502,12	431,00
-13470,27	428,00
-13438,50	541,00
-13406,80	462,00
-13375,19	517,00
-13343,66	524,00
-13312,20	519,00
-13280,83	439,00
-13249,53	467,00
-13218,30	338,00
-13187,16	415,00
-13156,09	583,00
-13125,10	540,00
-13094,18	533,00
-13063,34	483,00
-13032,58	371,00
-13001,89	441,00
-12971,28	441,00
-12940,74	456,00
-12910,27	475,00
-12879,88	449,00
-12849,57	552,00
-12819,33	471,00
-12789,16	544,00
-12759,06	486,00
-12729,04	386,00
-12699,09	302,00
-12669,21	504,00
-12639,41	489,00
-12609,68	439,00
-12580,02	470,00
-12550,43	571,00
-12520,91	457,00
-12491,46	419,00
-12462,08	405,00
-12432,77	439,00
-12403,54	336,00
-12374,37	347,00
-12345,27	497,00
-12316,24	447,00
-12287,29	449,00
-12258,40	396,00
-12229,57	522,00
-12200,82	410,00
-12172,14	561,00
-12143,52	323,00
-12114,97	379,00
-12086,49	477,00
-12058,07	524,00
-12029,73	478,00
-12001,44	475,00
-11973,23	555,00
-11945,08	473,00
-11917,00	498,00
-11888,98	321,00
-11861,03	527,00
-11833,15	451,00
-11805,32	494,00
-11777,57	404,00
-11749,88	494,00
-11722,25	391,00
-11694,69	471,00
-11667,19	440,00
-11639,75	507,00
-11612,38	431,00
-11585,07	384,00
-11557,83	416,00
-11530,65	569,00
-11503,53	424,00
-11476,47	403,00
-11449,48	400,00
-11422,54	500,00
-11395,67	495,00
-11368,86	505,00
-11342,11	490,00
-11315,43	444,00
-11288,80	453,00
-11262,23	435,00
-11235,73	465,00
-11209,28	666,00
-11182,90	460,00
-11156,57	459,00
-11130,31	546,00
-11104,10	520,00
-11077,96	400,00
-11051,87	432,00
-11025,84	488,00
-10999,87	436,00
-10973,96	449,00
-10948,11	389,00
-10922,31	464,00
-10896,58	367,00
-10870,90	467,00
-10845,28	473,00
-10819,71	379,00
-10794,20	517,00
-10768,75	403,00
-10743,36	396,00
-10718,02	409,00
-10692,74	410,00
-10667,52	428,00
-10642,35	383,00
-10617,24	461,00
-10592,18	453,00
-10567,18	377,00
-10542,23	456,00
-10517,34	381,00
-10492,51	352,00
-10467,72	365,00
-10443,00	425,00
-10418,32	470,00
-10393,70	542,00
-10369,14	352,00
-10344,63	331,00
-10320,17	449,00
-10295,77	401,00
-10271,42	376,00
-10247,12	357,00
-10222,88	418,00
-10198,68	348,00
-10174,54	363,00
-10150,46	550,00
-10126,42	489,00
-10102,44	366,00
-10078,51	227,00
-10054,63	346,00
-10030,80	267,00
-10007,03	325,00
-9983,30	223,00
-9959,63	335,00
-9936,01	377,00
-9912,44	315,00
-9888,92	229,00
-9865,44	233,00
-9842,02	111,00
-9818,65	227,00
-9795,33	75,00
-9772,06	176,00
-9748,84	81,00
-9725,67	93,00
-9702,55	62,00
-9679,47	0,00
-9656,45	55,00
-9633,47	-150,00
-9610,55	-137,00
-9587,67	-51,00
-9564,84	-126,00
-9542,06	-238,00
-9519,32	-228,00
-9496,64	-296,00
-9474,00	-509,00
-9451,41	-514,00
-9428,87	-620,00
-9406,37	-411,00
-9383,92	-601,00
-9361,52	-677,00
-9339,17	-526,00
-9316,86	-678,00
-9294,60	-804,00
-9272,38	-977,00
-9250,21	-1032,00
-9228,09	-1139,00
-9206,01	-1030,00
-9183,98	-1078,00
-9162,00	-1012,00
-9140,06	-824,00
-9118,16	-1003,00
-9096,31	-1083,00
-9074,51	-1048,00
-9052,75	-1012,00
-9031,04	-872,00
-9009,37	-837,00
-8987,74	-774,00
-8966,16	-683,00
-8944,63	-582,00
-8923,14	-447,00
-8901,69	-623,00
-8880,29	-708,00
-8858,93	-713,00
-8837,61	-642,00
-8816,34	-680,00
-8795,11	-699,00
-8773,92	-818,00
-8752,78	-659,00
-8731,68	-581,00
-8710,62	-396,00
-8689,61	-619,00
-8668,63	-611,00
-8647,70	-602,00
-8626,82	-620,00
-8605,97	-484,00
-8585,17	-485,00
-8564,41	-503,00
-8543,69	-302,00
-8523,01	-575,00
-8502,37	-381,00
-8481,78	-507,00
-8461,23	-612,00
-8440,71	-576,00
-8420,24	-581,00
-8399,81	-538,00
-8379,42	-594,00
-8359,08	-615,00
-8338,77	-673,00
-8318,50	-609,00
-8298,27	-548,00
-8278,09	-414,00
-8257,94	-495,00
-8237,83	-453,00
-8217,76	-506,00
-8197,74	-528,00
-8177,75	-394,00
-8157,80	-520,00
-8137,89	-406,00
-8118,02	-326,00
-8098,19	-287,00
-8078,40	-371,00
-8058,65	-346,00
-8038,93	-324,00
-8019,26	-254,00
-7999,62	-195,00
-7980,02	-263,00
-7960,46	-236,00
-7940,94	-324,00
-7921,46	-285,00
-7902,01	-217,00
-7882,60	-123,00
-7863,23	-242,00
-7843,90	-307,00
-7824,61	-246,00
-7805,35	-187,00
-7786,13	-249,00
-7766,95	-204,00
-7747,80	-190,00
-7728,69	-71,00
-7709,62	-192,00
-7690,59	-244,00
-7671,59	-192,00
-7652,63	-337,00
-7633,70	-253,00
-7614,81	-135,00
-7595,96	-186,00
-7577,15	-113,00
-7558,37	-158,00
-7539,62	-191,00
-7520,91	-287,00
-7502,24	-267,00
-7483,60	-285,00
-7465,00	-207,00
-7446,44	-77,00
-7427,91	-152,00
-7409,41	-94,00
-7390,95	-13,00
-7372,53	-81,00
-7354,14	-61,00
-7335,78	-97,00
-7317,46	-109,00
-7299,18	-219,00
-7280,92	-234,00
-7262,71	-202,00
-7244,52	-266,00
-7226,38	-311,00
-7208,26	-339,00
-7190,18	-236,00
-7172,14	-255,00
-7154,12	-162,00
-7136,15	-224,00
-7118,20	-204,00
-7100,29	-188,00
-7082,41	-274,00
-7064,57	-320,00
-7046,76	-252,00
-7028,98	-290,00
-7011,24	-200,00
-6993,53	-213,00
-6975,85	-70,00
-6958,20	1,00
-6940,59	19,00
-6923,01	-88,00
-6905,46	-96,00
-6887,94	-234,00
-6870,46	-2337,00
-6853,01	-165,00
-6835,59	-293,00
-6818,21	-313,00
-6800,85	-103,00
-6783,53	-96,00
-6766,24	-123,00
-6748,98	-9,00
-6731,76	-37,00
-6714,56	-27,00
-6697,40	-49,00
-6680,26	-41,00
-6663,16	-96,00
-6646,09	-74,00
-6629,05	-137,00
-6612,05	-201,00
-6595,07	-246,00
-6578,13	-183,00
-6561,21	-104,00
-6544,33	21,00
-6527,47	-20,00
-6510,65	68,00
-6493,86	-137,00
-6477,10	-75,00
-6460,36	47,00
-6443,66	-47,00
-6426,99	56,00
-6410,35	33,00
-6393,74	86,00
-6377,16	-18,00
-6360,61	-94,00
-6344,09	-129,00
-6327,59	-127,00
-6311,13	65,00
-6294,70	-97,00
-6278,29	-81,00
-6261,92	-194,00
-6245,58	-107,00
-6229,26	-46,00
-6212,97	-91,00
-6196,72	-95,00
-6180,49	49,00
-6164,29	-2,00
-6148,12	312,00
-6131,98	255,00
-6115,86	101,00
-6099,78	158,00
-6083,72	147,00
-6067,69	2,00
-6051,69	164,00
-6035,72	217,00
-6019,78	144,00
-6003,87	132,00
-5987,98	-128,00
-5972,12	-72,00
-5956,29	-80,00
-5940,49	-44,00
-5924,71	152,00
-5908,96	158,00
-5893,24	231,00
-5877,55	158,00
-5861,89	150,00
-5846,25	-64,00
-5830,64	113,00
-5815,05	83,00
-5799,50	95,00
-5783,97	196,00
-5768,47	121,00
-5752,99	92,00
-5737,55	-101,00
-5722,12	-57,00
-5706,73	-59,00
-5691,36	136,00
-5676,02	140,00
-5660,71	170,00
-5645,42	189,00
-5630,16	223,00
-5614,92	184,00
-5599,71	-54,00
-5584,53	8,00
-5569,37	19,00
-5554,24	997,00
-5539,14	51,00
-5524,06	194,00
-5509,01	149,00
-5493,98	-20,00
-5478,98	139,00
-5464,00	-36,00
-5449,05	18,00
-5434,13	222,00
-5419,23	185,00
-5404,36	123,00
-5389,51	62,00
-5374,69	-14,00
-5359,89	21,00
-5345,12	77,00
-5330,37	41,00
-5315,65	92,00
-5300,95	139,00
-5286,28	70,00
-5271,63	56,00
-5257,01	11,00
-5242,41	97,00
-5227,84	82,00
-5213,29	299,00
-5198,76	254,00
-5184,26	233,00
-5169,79	145,00
-5155,33	160,00
-5140,91	39,00
-5126,51	-54,00
-5112,13	127,00
-5097,77	146,00
-5083,44	254,00
-5069,13	202,00
-5054,85	329,00
-5040,59	248,00
-5026,36	98,00
-5012,15	138,00
-4997,96	66,00
-4983,80	213,00
-4969,66	296,00
-4955,54	194,00
-4941,44	266,00
-4927,37	-7,00
-4913,33	17,00
-4899,30	-125,00
-4885,30	100,00
-4871,33	63,00
-4857,37	275,00
-4843,44	223,00
-4829,53	293,00
-4815,65	211,00
-4801,79	34,00
-4787,95	151,00
-4774,13	179,00
-4760,34	209,00
-4746,56	405,00
-4732,82	260,00
-4719,09	258,00
-4705,38	209,00
-4691,70	155,00
-4678,04	241,00
-4664,41	274,00
-4650,79	340,00
-4637,20	211,00
-4623,63	222,00
-4610,08	281,00
-4596,56	145,00
-4583,05	67,00
-4569,57	247,00
-4556,11	329,00
-4542,67	371,00
-4529,25	262,00
-4515,86	168,00
-4502,49	244,00
-4489,13	189,00
-4475,80	265,00
-4462,49	188,00
-4449,21	422,00
-4435,94	379,00
-4422,70	160,00
-4409,47	129,00
-4396,27	252,00
-4383,09	224,00
-4369,93	423,00
-4356,79	361,00
-4343,67	387,00
-4330,58	321,00
-4317,50	355,00
-4304,45	284,00
-4291,41	499,00
-4278,40	355,00
-4265,41	348,00
-4252,44	318,00
-4239,49	210,00
-4226,55	291,00
-4213,65	292,00
-4200,76	484,00
-4187,89	473,00
-4175,04	297,00
-4162,21	307,00
-4149,40	433,00
-4136,61	382,00
-4123,85	428,00
-4111,10	398,00
-4098,37	440,00
-4085,66	373,00
-4072,98	408,00
-4060,31	391,00
-4047,66	514,00
-4035,04	637,00
-4022,43	385,00
-4009,84	419,00
-3997,27	404,00
-3984,72	487,00
-3972,19	460,00
-3959,69	471,00
-3947,20	388,00
-3934,73	452,00
-3922,27	422,00
-3909,84	428,00
-3897,43	519,00
-3885,04	497,00
-3872,67	443,00
-3860,31	460,00
-3847,98	518,00
-3835,66	482,00
-3823,36	537,00
-3811,09	427,00
-3798,83	516,00
-3786,59	442,00
-3774,37	573,00
-3762,17	412,00
-3749,98	444,00
-3737,82	456,00
-3725,67	619,00
-3713,55	398,00
-3701,44	571,00
-3689,35	486,00
-3677,28	483,00
-3665,22	367,00
-3653,19	424,00
-3641,17	430,00
-3629,18	514,00
-3617,20	551,00
-3605,24	485,00
-3593,30	434,00
-3581,37	506,00
-3569,47	461,00
-3557,58	448,00
-3545,71	527,00
-3533,86	527,00
-3522,02	506,00
-3510,21	528,00
-3498,41	477,00
-3486,63	432,00
-3474,87	467,00
-3463,12	394,00
-3451,40	456,00
-3439,69	418,00
-3428,00	469,00
-3416,33	488,00
-3404,67	466,00
-3393,03	460,00
-3381,41	529,00
-3369,81	554,00
-3358,22	510,00
-3346,66	600,00
-3335,10	495,00
-3323,57	443,00
-3312,06	446,00
-3300,56	506,00
-3289,08	413,00
-3277,61	480,00
-3266,16	489,00
-3254,73	414,00
-3243,32	420,00
-3231,92	464,00
-3220,55	523,00
-3209,18	554,00
-3197,84	362,00
-3186,51	440,00
-3175,20	428,00
-3163,90	385,00
-3152,63	559,00
-3141,36	461,00
-3130,12	529,00
-3118,89	582,00
-3107,68	416,00
-3096,49	523,00
-3085,31	415,00
-3074,15	455,00
-3063,00	476,00
-3051,87	436,00
-3040,76	472,00
-3029,67	520,00
-3018,59	668,00
-3007,52	512,00
-2996,48	483,00
-2985,44	548,00
-2974,43	455,00
-2963,43	468,00
-2952,45	484,00
-2941,48	462,00
-2930,53	517,00
-2919,60	398,00
-2908,68	469,00
-2897,78	457,00
-2886,89	503,00
-2876,02	553,00
-2865,17	460,00
-2854,33	470,00
-2843,50	413,00
-2832,70	403,00
-2821,90	441,00
-2811,13	587,00
-2800,37	449,00
-2789,62	383,00
-2778,89	519,00
-2768,18	533,00
-2757,48	476,00
-2746,80	568,00
-2736,13	451,00
-2725,48	554,00
-2714,84	414,00
-2704,22	520,00
-2693,61	440,00
-2683,02	453,00
-2672,45	476,00
-2661,89	559,00
-2651,34	450,00
-2640,81	478,00
-2630,30	542,00
-2619,80	411,00
-2609,31	482,00
-2598,84	418,00
-2588,39	464,00
-2577,95	464,00
-2567,52	420,00
-2557,11	452,00
-2546,71	538,00
-2536,33	460,00
-2525,97	537,00
-2515,62	439,00
-2505,28	423,00
-2494,96	449,00
-2484,65	543,00
-2474,36	618,00
-2464,08	481,00
-2453,82	544,00
-2443,57	456,00
-2433,33	439,00
-2423,11	545,00
-2412,91	540,00
-2402,72	453,00
-2392,54	498,00
-2382,38	514,00
-2372,23	471,00
-2362,09	988,00
-2351,97	433,00
-2341,87	429,00
-2331,78	462,00
-2321,70	551,00
-2311,64	503,00
-2301,59	525,00
-2291,55	421,00
-2281,53	510,00
-2271,53	335,00
-2261,53	598,00
-2251,55	453,00
-2241,59	394,00
-2231,64	474,00
-2221,70	432,00
-2211,78	510,00
-2201,87	494,00
-2191,97	519,00
-2182,09	447,00
-2172,22	443,00
-2162,37	439,00
-2152,53	438,00
-2142,70	473,00
-2132,89	511,00
-2123,09	483,00
-2113,30	518,00
-2103,53	447,00
-2093,77	477,00
-2084,02	456,00
-2074,29	531,00
-2064,57	418,00
-2054,86	516,00
-2045,17	516,00
-2035,49	455,00
-2025,82	425,00
-2016,17	508,00
-2006,53	387,00
-1996,91	527,00
-1987,29	410,00
-1977,69	541,00
-1968,11	446,00
-1958,53	470,00
-1948,97	495,00
-1939,42	475,00
-1929,89	500,00
-1920,37	464,00
-1910,86	353,00
-1901,36	488,00
-1891,88	472,00
-1882,41	463,00
-1872,95	505,00
-1863,51	522,00
-1854,08	431,00
-1844,66	547,00
-1835,26	538,00
-1825,86	490,00
-1816,48	391,00
-1807,11	516,00
-1797,76	507,00
-1788,42	483,00
-1779,09	456,00
-1769,77	415,00
-1760,47	532,00
-1751,17	410,00
-1741,89	438,00
-1732,63	464,00
-1723,37	598,00
-1714,13	523,00
-1704,90	504,00
-1695,68	536,00
-1686,48	478,00
-1677,29	463,00
-1668,11	519,00
-1658,94	490,00
-1649,78	490,00
-1640,64	494,00
-1631,51	476,00
-1622,39	638,00
-1613,28	488,00
-1604,19	574,00
-1595,10	486,00
-1586,03	453,00
-1576,97	496,00
-1567,93	446,00
-1558,89	434,00
-1549,87	522,00
-1540,86	453,00
-1531,86	428,00
-1522,87	530,00
-1513,90	508,00
-1504,93	491,00
-1495,98	554,00
-1487,04	456,00
-1478,12	425,00
-1469,20	555,00
-1460,30	439,00
-1451,40	553,00
-1442,52	493,00
-1433,65	499,00
-1424,80	420,00
-1415,95	502,00
-1407,12	631,00
-1398,30	466,00
-1389,48	555,00
-1380,69	413,00
-1371,90	406,00
-1363,12	622,00
-1354,36	542,00
-1345,60	532,00
-1336,86	370,00
-1328,13	540,00
-1319,41	505,00
-1310,70	445,00
-1302,01	421,00
-1293,32	405,00
-1284,65	510,00
-1275,99	581,00
-1267,33	616,00
-1258,69	535,00
-1250,06	518,00
-1241,45	399,00
-1232,84	599,00
-1224,25	464,00
-1215,66	612,00
-1207,09	475,00
-1198,53	422,00
-1189,97	455,00
-1181,43	482,00
-1172,91	411,00
-1164,39	550,00
-1155,88	477,00
-1147,38	367,00
-1138,90	508,00
-1130,43	420,00
-1121,96	531,00
-1113,51	450,00
-1105,07	507,00
-1096,64	507,00
-1088,22	476,00
-1079,81	483,00
-1071,41	553,00
-1063,02	453,00
-1054,65	574,00
-1046,28	507,00
-1037,92	484,00
-1029,58	519,00
-1021,24	581,00
-1012,92	650,00
-1004,61	481,00
-996,30	641,00
-988,01	410,00
-979,73	415,00
-971,46	533,00
-963,20	517,00
-954,95	353,00
-946,71	413,00
-938,48	561,00
-930,26	518,00
-922,06	506,00
-913,86	483,00
-905,67	459,00
-897,49	509,00
-889,33	355,00
-881,17	548,00
-873,02	515,00
-864,89	429,00
-856,76	421,00
-848,65	460,00
-840,54	572,00
-832,45	481,00
-824,36	372,00
-816,29	505,00
-808,22	555,00
-800,17	495,00
-792,12	445,00
-784,09	443,00
-776,06	401,00
-768,05	487,00
-760,04	434,00
-752,05	484,00
-744,07	517,00
-736,09	524,00
-728,13	435,00
-720,17	488,00
-712,23	473,00
-704,29	417,00
-696,37	491,00
-688,45	619,00
-680,55	415,00
-672,65	488,00
-664,77	497,00
-656,89	491,00
-649,03	437,00
-641,17	514,00
-633,32	402,00
-625,49	543,00
-617,66	473,00
-609,84	560,00
-602,03	383,00
-594,23	525,00
-586,45	515,00
-578,67	455,00
-570,90	460,00
-563,14	426,00
-555,39	550,00
-547,65	475,00
-539,91	493,00
-532,19	559,00
-524,48	500,00
-516,78	521,00
-509,08	578,00
-501,40	518,00
-493,72	573,00
-486,06	447,00
-478,40	580,00
-470,76	402,00
-463,12	432,00
-455,49	501,00
-447,87	504,00
-440,26	495,00
-432,66	458,00
-425,07	510,00
-417,49	530,00
-409,92	372,00
-402,35	464,00
-394,80	388,00
-387,25	409,00
-379,72	544,00
-372,19	559,00
-364,67	531,00
-357,17	473,00
-349,67	541,00
-342,18	462,00
-334,69	524,00
-327,22	535,00
-319,76	564,00
-312,30	457,00
-304,86	484,00
-297,42	490,00
-290,00	555,00
-282,58	484,00
-275,17	511,00
-267,77	642,00
-260,37	578,00
-252,99	604,00
-245,62	548,00
-238,25	585,00
-230,90	511,00
-223,55	638,00
-216,21	539,00
-208,88	651,00
-201,56	530,00
-194,25	642,00
-186,94	684,00
-179,65	631,00
-172,36	748,00
-165,08	800,00
-157,81	797,00
-150,55	836,00
-143,30	840,00
-136,06	802,00
-128,82	886,00
-121,60	858,00
-114,38	1004,00
-107,17	1095,00
-99,97	1182,00
-92,78	1192,00
-85,60	1396,00
-78,42	1583,00
-71,25	1671,00
-64,10	1899,00
-56,95	2154,00
-49,81	2533,00
-42,67	2930,00
-35,55	3583,00
-28,43	4595,00
-21,33	7452,00
-14,23	23404,00
-7,14	57498,00
-0,05	57284,00
7,02	57012,00
14,09	57319,00
21,14	20438,00
28,19	8767,00
35,23	5790,00
42,27	4593,00
49,29	3765,00
56,31	3276,00
63,32	2874,00
70,32	2425,00
77,31	2171,00
84,29	1961,00
91,27	1811,00
98,23	1676,00
105,19	1666,00
112,14	1852,00
119,09	2782,00
126,02	4634,00
132,95	5553,00
139,87	5923,00
146,78	6033,00
153,68	6090,00
160,58	6030,00
167,46	5834,00
174,34	5916,00
181,21	5998,00
188,08	5885,00
194,93	6034,00
201,78	6025,00
208,62	5884,00
215,45	6052,00
222,27	6038,00
229,09	6013,00
235,90	6042,00
242,70	6127,00
249,49	6071,00
256,27	5966,00
263,05	5997,00
269,82	5990,00
276,58	6008,00
283,33	5746,00
290,08	5857,00
296,82	5816,00
303,55	5677,00
310,27	5672,00
316,98	5685,00
323,69	5602,00
330,39	5692,00
337,08	5738,00
343,76	5710,00
350,44	5713,00
357,11	5656,00
363,77	5678,00
370,42	5600,00
377,07	5547,00
383,71	5637,00
390,34	5642,00
396,96	5674,00
403,58	5589,00
410,19	5808,00
416,79	5733,00
423,38	5872,00
429,97	5687,00
436,55	5457,00
443,12	5423,00
449,68	5409,00
456,24	5372,00
462,79	5414,00
469,33	5377,00
475,86	5379,00
482,39	5342,00
488,91	5316,00
495,42	5265,00
501,93	5249,00
508,42	5144,00
514,91	5191,00
521,40	5142,00
527,87	5142,00
534,34	5069,00
540,80	5060,00
547,25	5160,00
553,70	5071,00
560,14	5163,00
566,57	5164,00
573,00	5009,00
579,41	5216,00
585,83	5173,00
592,23	5054,00
598,62	5038,00
605,01	4953,00
611,40	5070,00
617,77	5114,00
624,14	4934,00
630,50	4926,00
636,85	4948,00
643,20	4940,00
649,54	4871,00
655,87	4784,00
662,20	4800,00
668,52	4860,00
674,83	4846,00
681,13	4824,00
687,43	4825,00
693,72	4654,00
700,00	4634,00
706,28	4710,00
712,55	4638,00
718,81	4768,00
725,07	4740,00
731,32	4733,00
737,56	4790,00
743,79	4699,00
750,02	4790,00
756,24	4615,00
762,46	4569,00
768,67	4739,00
774,87	4599,00
781,06	4529,00
787,25	4692,00
793,43	4615,00
799,60	4623,00
805,77	4589,00
811,93	4537,00
818,08	4563,00
824,23	4512,00
830,37	4659,00
836,50	4544,00
842,63	4385,00
848,75	4549,00
854,87	4528,00
860,97	4551,00
867,07	4414,00
873,17	4478,00
879,25	4394,00
885,33	4463,00
891,41	4394,00
897,47	4428,00
903,53	4278,00
909,59	4257,00
915,63	4228,00
921,67	4264,00
927,71	4273,00
933,74	4339,00
939,76	4156,00
945,77	4255,00
951,78	4325,00
957,78	4138,00
963,78	4319,00
969,77	4251,00
975,75	4219,00
981,72	4164,00
987,69	5082,00
993,66	4278,00
999,61	4289,00
1005,56	4289,00
1011,51	4158,00
1017,44	4243,00
1023,37	4319,00
1029,30	4174,00
1035,22	4228,00
1041,13	4218,00
1047,03	4260,00
1052,93	4198,00
1058,83	4402,00
1064,71	4445,00
1070,59	4414,00
1076,47	4174,00
1082,33	4109,00
1088,20	4243,00
1094,05	4075,00
1099,90	4044,00
1105,74	4153,00
1111,58	4020,00
1117,41	4145,00
1123,23	4144,00
1129,05	4265,00
1134,86	4272,00
1140,67	4073,00
1146,47	4063,00
1152,26	4190,00
1158,05	4012,00
1163,83	4120,00
1169,60	4081,00
1175,37	4121,00
1181,13	4003,00
1186,89	3951,00
1192,64	4050,00
1198,38	4157,00
1204,12	3960,00
1209,85	3992,00
1215,58	4064,00
1221,30	4123,00
1227,02	4100,00
1232,72	4065,00
1238,43	3945,00
1244,12	4068,00
1249,81	4021,00
1255,50	4198,00
1261,17	4112,00
1266,85	4053,00
1272,51	4090,00
1278,17	4096,00
1283,83	4058,00
1289,47	4284,00
1295,12	4406,00
1300,75	4287,00
1306,38	4323,00
1312,01	4173,00
1317,63	4073,00
1323,24	4094,00
1328,85	4085,00
1334,45	4026,00
1340,04	4170,00
1345,63	4155,00
1351,22	4206,00
1356,80	4101,00
1362,37	4099,00
1367,93	4214,00
1373,49	4200,00
1379,05	4178,00
1384,60	4107,00
1390,14	4172,00
1395,68	4231,00
1401,21	4143,00
1406,74	4159,00
1412,26	4229,00
1417,77	4371,00
1423,28	4204,00
1428,78	4279,00
1434,28	4567,00
1439,77	4480,00
1445,26	4492,00
1450,74	4538,00
1456,22	4346,00
1461,68	4303,00
1467,15	4311,00
1472,61	4146,00
1478,06	4206,00
1483,51	4235,00
1488,95	3954,00
1494,38	4046,00
1499,81	3960,00
1505,24	3887,00
1510,65	3914,00
1516,07	3853,00
1521,48	3810,00
1526,88	3784,00
1532,27	3857,00
1537,67	3865,00
1543,05	3825,00
1548,43	3787,00
1553,81	3800,00
1559,18	3613,00
1564,54	3756,00
1569,90	3686,00
1575,25	3656,00
1580,60	3554,00
1585,94	3676,00
1591,28	3758,00
1596,61	3679,00
1601,93	3688,00
1607,25	3711,00
1612,57	3544,00
1617,88	3565,00
1623,18	3699,00
1628,48	3601,00
1633,77	3524,00
1639,06	3624,00
1644,34	3538,00
1649,62	3434,00
1654,89	3369,00
1660,16	3432,00
1665,42	3516,00
1670,67	3461,00
1675,92	3300,00
1681,17	3393,00
1686,41	3432,00
1691,64	3427,00
1696,87	3424,00
1702,10	3355,00
1707,32	3419,00
1712,53	3284,00
1717,74	3308,00
1722,94	3424,00
1728,14	3284,00
1733,33	3290,00
1738,52	3204,00
1743,70	3205,00
1748,88	3255,00
1754,05	3239,00
1759,22	3180,00
1764,38	3233,00
1769,53	3262,00
1774,69	3135,00
1779,83	3111,00
1784,97	3230,00
1790,11	3015,00
1795,24	3090,00
1800,36	3086,00
1805,48	3044,00
1810,60	3134,00
1815,71	3013,00
1820,82	2983,00
1825,92	3099,00
1831,01	3005,00
1836,10	3064,00
1841,19	3176,00
1846,26	2874,00
1851,34	3053,00
1856,41	2942,00
1861,47	2965,00
1866,53	2993,00
1871,59	2945,00
1876,64	2930,00
1881,68	2965,00
1886,72	2908,00
1891,76	2959,00
1896,79	2857,00
1901,81	2804,00
1906,83	2882,00
1911,85	2780,00
1916,86	2829,00
1921,86	2608,00
1926,86	2746,00
1931,86	2814,00
1936,85	2665,00
1941,83	2603,00
1946,81	2643,00
1951,79	2638,00
1956,76	2663,00
1961,72	2588,00
1966,68	2688,00
1971,64	2702,00
1976,59	2596,00
1981,54	2594,00
1986,48	2562,00
1991,42	2483,00
1996,35	2755,00
2001,27	2516,00
2006,20	2591,00
2011,11	2564,00
2016,03	2521,00
2020,93	2503,00
2025,84	2606,00
2030,73	2436,00
2035,63	2455,00
2040,52	2480,00
2045,40	2504,00
2050,28	2498,00
2055,15	2474,00
2060,02	2347,00
2064,89	2460,00
2069,75	2565,00
2074,60	2429,00
2079,46	2311,00
2084,30	2467,00
2089,14	2368,00
2093,98	2357,00
2098,81	2377,00
2103,64	2340,00
2108,46	2350,00
2113,28	2345,00
2118,09	2450,00
2122,90	2361,00
2127,70	2327,00
2132,50	2432,00
2137,30	2249,00
2142,09	2314,00
2146,87	2183,00
2151,66	2312,00
2156,43	2154,00
2161,20	2253,00
2165,97	2384,00
2170,73	2209,00
2175,49	2197,00
2180,24	2305,00
2184,99	2311,00
2189,74	2301,00
2194,48	2218,00
2199,21	2205,00
2203,94	2173,00
2208,67	1993,00
2213,39	2079,00
2218,11	2121,00
2222,82	2179,00
2227,53	2097,00
2232,23	2192,00
2236,93	2213,00
2241,63	2046,00
2246,32	2118,00
2251,00	2119,00
2255,68	2117,00
2260,36	2018,00
2265,03	2160,00
2269,70	2124,00
2274,36	2038,00
2279,02	2142,00
2283,68	1946,00
2288,33	1999,00
2292,97	2064,00
2297,61	2067,00
2302,25	1968,00
2306,88	1993,00
2311,51	1908,00
2316,14	1957,00
2320,75	1939,00
2325,37	1861,00
2329,98	2036,00
2334,59	1988,00
2339,19	1951,00
2343,79	1836,00
2348,38	1879,00
2352,97	1889,00
2357,55	1849,00
2362,13	1822,00
2366,71	1754,00
2371,28	1890,00
2375,85	1831,00
2380,41	1922,00
2384,97	1796,00
2389,52	1882,00
2394,07	1796,00
2398,62	1783,00
2403,16	1883,00
2407,70	1635,00
2412,23	1748,00
2416,76	1847,00
2421,29	1793,00
2425,81	1852,00
2430,32	1837,00
2434,84	1634,00
2439,34	1639,00
2443,85	1808,00
2448,35	1714,00
2452,84	1678,00
2457,33	1685,00
2461,82	1616,00
2466,30	1581,00
2470,78	1642,00
2475,25	1692,00
2479,72	1622,00
2484,19	1730,00
2488,65	1688,00
2493,11	1601,00
2497,56	1683,00
2502,01	1524,00
2506,46	1613,00
2510,90	1553,00
2515,34	1518,00
2519,77	1694,00
2524,20	1609,00
2528,62	1570,00
2533,04	1601,00
2537,46	1544,00
2541,87	1602,00
2546,28	1539,00
2550,68	1662,00
2555,08	1515,00
2559,48	1491,00
2563,87	1444,00
2568,26	1377,00
2572,64	1492,00
2577,02	1418,00
2581,40	1388,00
2585,77	1434,00
2590,14	1392,00
2594,50	1373,00
2598,86	1392,00
2603,22	1405,00
2607,57	1346,00
2611,92	1416,00
2616,26	1415,00
2620,60	1472,00
2624,94	1333,00
2629,27	1325,00
2633,60	1303,00
2637,92	1400,00
2642,24	1380,00
2646,56	1344,00
2650,87	1178,00
2655,18	1359,00
2659,48	1332,00
2663,78	1320,00
2668,08	1333,00
2672,37	1322,00
2676,66	1307,00
2680,95	1156,00
2685,23	1405,00
2689,50	1343,00
2693,78	1271,00
2698,05	1247,00
2702,31	1334,00
2706,57	1389,00
2710,83	1418,00
2715,08	1349,00
2719,33	1394,00
2723,58	1347,00
2727,82	1384,00
2732,06	1282,00
2736,29	1319,00
2740,53	1299,00
2744,75	1289,00
2748,97	1213,00
2753,19	1232,00
2757,41	1269,00
2761,62	1353,00
2765,83	1185,00
2770,03	1217,00
2774,23	1347,00
2778,43	1136,00
2782,62	1238,00
2786,81	1187,00
2791,00	1257,00
2795,18	1232,00
2799,35	1205,00
2803,53	1163,00
2807,70	1189,00
2811,86	1192,00
2816,03	1304,00
2820,19	1165,00
2824,34	1145,00
2828,49	1231,00
2832,64	1204,00
2836,78	1383,00
2840,92	1366,00
2845,06	1595,00
2849,19	1670,00
2853,32	1587,00
2857,45	1513,00
2861,57	1623,00
2865,69	1589,00
2869,80	1457,00
2873,91	1522,00
2878,02	1692,00
2882,12	1697,00
2886,22	1580,00
2890,32	1520,00
2894,41	1571,00
2898,50	1436,00
2902,58	1509,00
2906,67	1347,00
2910,74	1363,00
2914,82	1286,00
2918,89	1446,00
2922,96	1279,00
2927,02	1151,00
2931,08	1196,00
2935,13	1147,00
2939,19	1161,00
2943,24	1121,00
2947,28	1180,00
2951,32	1074,00
2955,36	1026,00
2959,40	1204,00
2963,43	1107,00
2967,46	1011,00
2971,48	1016,00
2975,50	974,00
2979,52	1053,00
2983,53	1040,00
2987,54	1009,00
2991,55	945,00
2995,55	1055,00
2999,55	889,00
3003,54	936,00
3007,54	972,00
3011,53	1006,00
3015,51	899,00
3019,49	856,00
3023,47	925,00
3027,45	931,00
3031,42	930,00
3035,39	864,00
3039,35	792,00
3043,31	919,00
3047,27	891,00
3051,22	891,00
3055,17	864,00
3059,12	786,00
3063,06	852,00
3067,00	823,00
3070,94	771,00
3074,87	908,00
3078,80	867,00
3082,73	811,00
3086,65	832,00
3090,57	831,00
3094,49	852,00
3098,40	782,00
3102,31	779,00
3106,22	795,00
3110,12	760,00
3114,02	659,00
3117,92	751,00
3121,81	738,00
3125,70	739,00
3129,58	684,00
3133,47	673,00
3137,34	751,00
3141,22	816,00
3145,09	735,00
3148,96	849,00
3152,83	825,00
3156,69	721,00
3160,55	742,00
3164,40	774,00
3168,26	784,00
3172,10	795,00
3175,95	738,00
3179,79	721,00
3183,63	827,00
3187,47	749,00
3191,30	746,00
3195,13	725,00
3198,95	644,00
3202,78	697,00
3206,60	693,00
3210,41	710,00
3214,23	653,00
3218,03	698,00
3221,84	664,00
3225,64	701,00
3229,44	638,00
3233,24	765,00
3237,03	689,00
3240,82	604,00
3244,61	699,00
3248,39	593,00
3252,17	731,00
3255,95	702,00
3259,72	653,00
3263,49	784,00
3267,26	690,00
3271,03	764,00
3274,79	715,00
3278,54	738,00
3282,30	545,00
3286,05	697,00
3289,80	599,00
3293,54	669,00
3297,29	607,00
3301,02	627,00
3304,76	643,00
3308,49	725,00
3312,22	582,00
3315,95	617,00
3319,67	611,00
3323,39	679,00
3327,10	712,00
3330,82	637,00
3334,53	607,00
3338,24	579,00
3341,94	546,00
3345,64	637,00
3349,34	652,00
3353,03	601,00
3356,72	637,00
3360,41	596,00
3364,10	463,00
3367,78	664,00
3371,46	606,00
3375,13	642,00
3378,81	590,00
3382,48	545,00
3386,14	564,00
3389,81	639,00
3393,47	539,00
3397,12	591,00
3400,78	590,00
3404,43	629,00
3408,08	581,00
3411,72	463,00
3415,36	458,00
3419,00	578,00
3422,64	597,00
3426,27	555,00
3429,90	578,00
3433,53	568,00
3437,15	556,00
3440,77	508,00
3444,39	507,00
3448,00	552,00
3451,62	548,00
3455,22	560,00
3458,83	492,00
3462,43	501,00
3466,03	652,00
3469,63	493,00
3473,22	484,00
3476,81	421,00
3480,40	654,00
3483,99	499,00
3487,57	481,00
3491,15	573,00
3494,72	599,00
3498,29	597,00
3501,86	483,00
3505,43	509,00
3508,99	482,00
3512,56	441,00
3516,11	644,00
3519,67	475,00
3523,22	544,00
3526,77	401,00
3530,32	669,00
3533,86	558,00
3537,40	579,00
3540,94	537,00
3544,47	594,00
3548,00	462,00
3551,53	614,00
3555,06	495,00
3558,58	574,00
3562,10	547,00
3565,62	476,00
3569,13	519,00
3572,64	573,00
3576,15	412,00
3579,66	536,00
3583,16	454,00
3586,66	555,00
3590,16	474,00
3593,65	470,00
3597,14	537,00
3600,63	480,00
3604,11	450,00
3607,60	519,00
3611,08	506,00
3614,55	504,00
3618,03	465,00
3621,50	418,00
3624,97	398,00
3628,43	488,00
3631,90	488,00
3635,36	391,00
3638,81	437,00
3642,27	463,00
3645,72	522,00
3649,17	425,00
3652,61	462,00
3656,06	400,00
3659,50	457,00
3662,93	451,00
3666,37	541,00
3669,80	514,00
3673,23	549,00
3676,65	433,00
3680,08	525,00
3683,50	401,00
3686,92	436,00
3690,33	484,00
3693,74	423,00
3697,15	459,00
3700,56	470,00
3703,96	436,00
3707,36	346,00
3710,76	398,00
3714,16	405,00
3717,55	446,00
3720,94	362,00
3724,33	410,00
3727,71	478,00
3731,10	392,00
3734,48	417,00
3737,85	421,00
3741,23	334,00
3744,60	453,00
3747,97	373,00
3751,33	454,00
3754,69	444,00
3758,05	373,00
3761,41	337,00
3764,77	379,00
3768,12	407,00
3771,47	327,00
3774,82	382,00
3778,16	0,00
3781,50	9,00
3784,84	2,00
3788,18	5,00
>>>>>End Processed Spectral Data<<<<<
