SpectraSuite Data File
++++++++++++++++++++++++++++++++++++
Date: Mon Jan 05 16:23:52 ICT 2026
User: Administrator
Dark Spectrum Present: Yes
Reference Spectrum Present: No
Number of Sampled Component Spectra: 1
Spectrometers: MAYP113682
Integration Time (usec): 3000000 (MAYP113682)
Spectra Averaged: 1 (MAYP113682)
Boxcar Smoothing: 0 (MAYP113682)
Correct for Electrical Dark: No (MAYP113682)
Strobe/Lamp Enabled: No (MAYP113682)
Correct for Detector Non-linearity: No (MAYP113682)
Correct for Stray Light: No (MAYP113682)
Number of Pixels in Processed Spectrum: 2068
>>>>>Begin Processed Spectral Data<<<<<
-37534,58	13,00
-37414,56	2,00
-37295,11	5,00
-37176,24	0,00
-37057,95	186,00
-36940,22	290,00
-36823,05	233,00
-36706,45	288,00
-36590,40	278,00
-36474,90	375,00
-36359,95	228,00
-36245,55	329,00
-36131,68	217,00
-36018,35	286,00
-35905,55	249,00
-35793,29	338,00
-35681,54	289,00
-35570,32	302,00
-35459,62	283,00
-35349,43	350,00
-35239,75	302,00
-35130,58	263,00
-35021,91	279,00
-34913,74	219,00
-34806,07	317,00
-34698,89	245,00
-34592,20	301,00
-34486,00	270,00
-34380,28	349,00
-34275,04	311,00
-34170,27	293,00
-34065,98	443,00
-33962,16	359,00
-33858,81	295,00
-33755,92	243,00
-33653,49	428,00
-33551,52	319,00
-33450,01	391,00
-33348,94	303,00
-33248,33	338,00
-33148,16	363,00
-33048,43	268,00
-32949,14	429,00
-32850,29	391,00
-32751,87	302,00
-32653,89	372,00
-32556,33	321,00
-32459,20	358,00
-32362,49	379,00
-32266,19	321,00
-32170,32	310,00
-32074,86	341,00
-31979,82	381,00
-31885,18	373,00
-31790,95	395,00
-31697,12	402,00
-31603,69	383,00
-31510,67	343,00
-31418,04	314,00
-31325,80	282,00
-31233,95	232,00
-31142,49	361,00
-31051,42	250,00
-30960,73	322,00
-30870,43	410,00
-30780,50	353,00
-30690,95	359,00
-30601,77	377,00
-30512,97	329,00
-30424,53	306,00
-30336,46	284,00
-30248,76	280,00
-30161,42	432,00
-30074,44	362,00
-29987,81	338,00
-29901,55	376,00
-29815,63	270,00
-29730,07	325,00
-29644,86	418,00
-29560,00	370,00
-29475,48	368,00
-29391,30	408,00
-29307,47	382,00
-29223,97	295,00
-29140,81	382,00
-29057,99	389,00
-28975,50	288,00
-28893,34	387,00
-28811,51	363,00
-28730,00	328,00
-28648,82	373,00
-28567,97	361,00
-28487,43	322,00
-28407,21	328,00
-28327,32	314,00
-28247,73	368,00
-28168,46	317,00
-28089,50	330,00
-28010,85	287,00
-27932,51	269,00
-27854,48	350,00
-27776,75	291,00
-27699,32	318,00
-27622,19	333,00
-27545,37	343,00
-27468,84	380,00
-27392,60	348,00
-27316,66	380,00
-27241,01	318,00
-27165,66	337,00
-27090,59	218,00
-27015,81	416,00
-26941,31	274,00
-26867,10	334,00
-26793,17	356,00
-26719,52	307,00
-26646,15	240,00
-26573,06	345,00
-26500,24	362,00
-26427,70	372,00
-26355,43	330,00
-26283,43	345,00
-26211,71	342,00
-26140,25	353,00
-26069,06	296,00
-25998,13	268,00
-25927,46	290,00
-25857,06	248,00
-25786,92	394,00
-25717,04	293,00
-25647,42	381,00
-25578,05	367,00
-25508,94	286,00
-25440,09	312,00
-25371,48	367,00
-25303,13	326,00
-25235,02	300,00
-25167,17	322,00
-25099,56	392,00
-25032,19	341,00
-24965,07	277,00
-24898,20	277,00
-24831,56	229,00
-24765,17	359,00
-24699,01	283,00
-24633,10	436,00
-24567,41	376,00
-24501,97	293,00
-24436,75	258,00
-24371,77	288,00
-24307,03	275,00
-24242,51	380,00
-24178,22	293,00
-24114,16	298,00
-24050,32	410,00
-23986,71	318,00
-23923,32	381,00
-23860,16	380,00
-23797,22	314,00
-23734,50	342,00
-23672,00	330,00
-23609,71	387,00
-23547,65	261,00
-23485,80	393,00
-23424,16	230,00
-23362,74	429,00
-23301,53	350,00
-23240,54	209,00
-23179,75	229,00
-23119,17	320,00
-23058,80	301,00
-22998,64	414,00
-22938,68	232,00
-22878,93	231,00
-22819,39	218,00
-22760,04	370,00
-22700,90	348,00
-22641,96	329,00
-22583,22	334,00
-22524,68	403,00
-22466,33	350,00
-22408,19	333,00
-22350,23	229,00
-22292,48	348,00
-22234,92	347,00
-22177,55	355,00
-22120,37	432,00
-22063,38	303,00
-22006,58	354,00
-21949,98	329,00
-21893,56	250,00
-21837,33	399,00
-21781,28	346,00
-21725,42	426,00
-21669,74	335,00
-21614,25	330,00
-21558,94	348,00
-21503,81	391,00
-21448,86	337,00
-21394,10	337,00
-21339,51	348,00
-21285,10	260,00
-21230,86	218,00
-21176,81	286,00
-21122,93	274,00
-21069,22	203,00
-21015,69	274,00
-20962,33	382,00
-20909,14	286,00
-20856,13	358,00
-20803,28	365,00
-20750,61	330,00
-20698,10	228,00
-20645,76	232,00
-20593,59	417,00
-20541,59	358,00
-20489,75	318,00
-20438,07	275,00
-20386,56	362,00
-20335,22	303,00
-20284,03	351,00
-20233,01	287,00
-20182,15	248,00
-20131,45	327,00
-20080,91	204,00
-20030,52	354,00
-19980,30	258,00
-19930,23	275,00
-19880,32	366,00
-19830,56	281,00
-19780,96	353,00
-19731,52	336,00
-19682,23	314,00
-19633,09	309,00
-19584,10	241,00
-19535,26	324,00
-19486,58	339,00
-19438,04	324,00
-19389,66	374,00
-19341,42	313,00
-19293,33	321,00
-19245,39	244,00
-19197,60	368,00
-19149,95	326,00
-19102,45	318,00
-19055,09	249,00
-19007,87	314,00
-18960,80	321,00
-18913,87	266,00
-18867,09	329,00
-18820,44	366,00
-18773,94	371,00
-18727,57	337,00
-18681,35	289,00
-18635,26	331,00
-18589,31	265,00
-18543,50	253,00
-18497,83	389,00
-18452,29	331,00
-18406,89	338,00
-18361,63	332,00
-18316,50	353,00
-18271,50	306,00
-18226,63	343,00
-18181,90	354,00
-18137,30	373,00
-18092,84	409,00
-18048,50	321,00
-18004,29	312,00
-17960,22	323,00
-17916,27	276,00
-17872,45	368,00
-17828,76	454,00
-17785,20	264,00
-17741,77	391,00
-17698,46	365,00
-17655,28	325,00
-17612,22	279,00
-17569,29	298,00
-17526,48	384,00
-17483,79	380,00
-17441,23	193,00
-17398,79	361,00
-17356,48	301,00
-17314,28	351,00
-17272,21	350,00
-17230,26	368,00
-17188,42	352,00
-17146,71	379,00
-17105,12	281,00
-17063,64	285,00
-17022,28	296,00
-16981,04	299,00
-16939,92	372,00
-16898,91	422,00
-16858,02	254,00
-16817,25	349,00
-16776,59	303,00
-16736,04	314,00
-16695,61	381,00
-16655,29	232,00
-16615,09	241,00
-16574,99	319,00
-16535,01	356,00
-16495,15	351,00
-16455,39	232,00
-16415,74	260,00
-16376,21	402,00
-16336,78	269,00
-16297,46	318,00
-16258,26	242,00
-16219,16	318,00
-16180,17	374,00
-16141,28	423,00
-16102,51	400,00
-16063,84	279,00
-16025,27	308,00
-15986,82	264,00
-15948,46	344,00
-15910,22	319,00
-15872,07	296,00
-15834,04	273,00
-15796,10	331,00
-15758,27	408,00
-15720,54	336,00
-15682,91	343,00
-15645,39	382,00
-15607,97	403,00
-15570,64	237,00
-15533,42	355,00
-15496,30	262,00
-15459,28	337,00
-15422,36	344,00
-15385,54	258,00
-15348,82	416,00
-15312,19	394,00
-15275,66	331,00
-15239,23	374,00
-15202,90	238,00
-15166,67	347,00
-15130,53	336,00
-15094,48	401,00
-15058,54	277,00
-15022,68	335,00
-14986,93	298,00
-14951,26	356,00
-14915,69	421,00
-14880,22	321,00
-14844,84	331,00
-14809,55	355,00
-14774,35	325,00
-14739,25	254,00
-14704,24	300,00
-14669,32	309,00
-14634,49	309,00
-14599,75	428,00
-14565,10	283,00
-14530,55	355,00
-14496,08	336,00
-14461,70	400,00
-14427,41	346,00
-14393,21	290,00
-14359,10	320,00
-14325,07	324,00
-14291,14	282,00
-14257,29	251,00
-14223,52	362,00
-14189,85	461,00
-14156,26	366,00
-14122,76	253,00
-14089,34	287,00
-14056,01	308,00
-14022,76	243,00
-13989,60	312,00
-13956,52	410,00
-13923,53	431,00
-13890,62	269,00
-13857,79	333,00
-13825,05	248,00
-13792,39	227,00
-13759,81	334,00
-13727,31	326,00
-13694,90	325,00
-13662,57	405,00
-13630,31	363,00
-13598,14	434,00
-13566,05	285,00
-13534,05	324,00
-13502,12	307,00
-13470,27	296,00
-13438,50	413,00
-13406,80	270,00
-13375,19	379,00
-13343,66	338,00
-13312,20	341,00
-13280,83	275,00
-13249,53	362,00
-13218,30	229,00
-13187,16	357,00
-13156,09	442,00
-13125,10	348,00
-13094,18	332,00
-13063,34	358,00
-13032,58	241,00
-13001,89	308,00
-12971,28	377,00
-12940,74	285,00
-12910,27	376,00
-12879,88	408,00
-12849,57	367,00
-12819,33	351,00
-12789,16	375,00
-12759,06	289,00
-12729,04	248,00
-12699,09	895,00
-12669,21	302,00
-12639,41	320,00
-12609,68	300,00
-12580,02	277,00
-12550,43	433,00
-12520,91	301,00
-12491,46	321,00
-12462,08	239,00
-12432,77	330,00
-12403,54	195,00
-12374,37	328,00
-12345,27	346,00
-12316,24	357,00
-12287,29	316,00
-12258,40	306,00
-12229,57	420,00
-12200,82	201,00
-12172,14	336,00
-12143,52	236,00
-12114,97	279,00
-12086,49	365,00
-12058,07	328,00
-12029,73	339,00
-12001,44	358,00
-11973,23	380,00
-11945,08	307,00
-11917,00	355,00
-11888,98	272,00
-11861,03	406,00
-11833,15	293,00
-11805,32	367,00
-11777,57	305,00
-11749,88	363,00
-11722,25	315,00
-11694,69	301,00
-11667,19	337,00
-11639,75	436,00
-11612,38	325,00
-11585,07	326,00
-11557,83	337,00
-11530,65	359,00
-11503,53	276,00
-11476,47	302,00
-11449,48	288,00
-11422,54	417,00
-11395,67	382,00
-11368,86	275,00
-11342,11	295,00
-11315,43	307,00
-11288,80	296,00
-11262,23	308,00
-11235,73	361,00
-11209,28	469,00
-11182,90	378,00
-11156,57	244,00
-11130,31	463,00
-11104,10	336,00
-11077,96	308,00
-11051,87	251,00
-11025,84	315,00
-10999,87	340,00
-10973,96	352,00
-10948,11	263,00
-10922,31	411,00
-10896,58	367,00
-10870,90	316,00
-10845,28	339,00
-10819,71	282,00
-10794,20	361,00
-10768,75	361,00
-10743,36	417,00
-10718,02	270,00
-10692,74	273,00
-10667,52	383,00
-10642,35	345,00
-10617,24	329,00
-10592,18	372,00
-10567,18	353,00
-10542,23	341,00
-10517,34	272,00
-10492,51	394,00
-10467,72	243,00
-10443,00	373,00
-10418,32	373,00
-10393,70	470,00
-10369,14	370,00
-10344,63	236,00
-10320,17	421,00
-10295,77	371,00
-10271,42	356,00
-10247,12	369,00
-10222,88	409,00
-10198,68	375,00
-10174,54	390,00
-10150,46	439,00
-10126,42	453,00
-10102,44	405,00
-10078,51	333,00
-10054,63	500,00
-10030,80	348,00
-10007,03	518,00
-9983,30	439,00
-9959,63	471,00
-9936,01	526,00
-9912,44	545,00
-9888,92	503,00
-9865,44	470,00
-9842,02	486,00
-9818,65	495,00
-9795,33	454,00
-9772,06	488,00
-9748,84	509,00
-9725,67	543,00
-9702,55	575,00
-9679,47	582,00
-9656,45	729,00
-9633,47	651,00
-9610,55	701,00
-9587,67	820,00
-9564,84	871,00
-9542,06	799,00
-9519,32	885,00
-9496,64	1015,00
-9474,00	1016,00
-9451,41	1097,00
-9428,87	1038,00
-9406,37	1224,00
-9383,92	1002,00
-9361,52	1046,00
-9339,17	1223,00
-9316,86	1202,00
-9294,60	1399,00
-9272,38	1430,00
-9250,21	1576,00
-9228,09	1581,00
-9206,01	1678,00
-9183,98	1593,00
-9162,00	1409,00
-9140,06	1556,00
-9118,16	1423,00
-9096,31	1370,00
-9074,51	1535,00
-9052,75	1535,00
-9031,04	1578,00
-9009,37	1433,00
-8987,74	1394,00
-8966,16	1230,00
-8944,63	1169,00
-8923,14	1133,00
-8901,69	1154,00
-8880,29	1068,00
-8858,93	1267,00
-8837,61	1318,00
-8816,34	1294,00
-8795,11	1363,00
-8773,92	1144,00
-8752,78	1240,00
-8731,68	983,00
-8710,62	1214,00
-8689,61	1121,00
-8668,63	1152,00
-8647,70	1239,00
-8626,82	1393,00
-8605,97	1323,00
-8585,17	1188,00
-8564,41	1122,00
-8543,69	1096,00
-8523,01	968,00
-8502,37	1173,00
-8481,78	1063,00
-8461,23	1009,00
-8440,71	1233,00
-8420,24	1201,00
-8399,81	1301,00
-8379,42	1188,00
-8359,08	1176,00
-8338,77	1043,00
-8318,50	872,00
-8298,27	917,00
-8278,09	1034,00
-8257,94	1051,00
-8237,83	1195,00
-8217,76	1134,00
-8197,74	1017,00
-8177,75	1110,00
-8157,80	936,00
-8137,89	955,00
-8118,02	894,00
-8098,19	904,00
-8078,40	902,00
-8058,65	892,00
-8038,93	905,00
-8019,26	1019,00
-7999,62	903,00
-7980,02	864,00
-7960,46	792,00
-7940,94	744,00
-7921,46	776,00
-7902,01	778,00
-7882,60	879,00
-7863,23	835,00
-7843,90	789,00
-7824,61	936,00
-7805,35	936,00
-7786,13	1002,00
-7766,95	909,00
-7747,80	792,00
-7728,69	862,00
-7709,62	881,00
-7690,59	833,00
-7671,59	989,00
-7652,63	946,00
-7633,70	929,00
-7614,81	853,00
-7595,96	861,00
-7577,15	828,00
-7558,37	784,00
-7539,62	712,00
-7520,91	839,00
-7502,24	846,00
-7483,60	886,00
-7465,00	829,00
-7446,44	827,00
-7427,91	620,00
-7409,41	675,00
-7390,95	669,00
-7372,53	567,00
-7354,14	661,00
-7335,78	717,00
-7317,46	666,00
-7299,18	625,00
-7280,92	670,00
-7262,71	906,00
-7244,52	872,00
-7226,38	773,00
-7208,26	719,00
-7190,18	737,00
-7172,14	727,00
-7154,12	777,00
-7136,15	635,00
-7118,20	861,00
-7100,29	825,00
-7082,41	806,00
-7064,57	696,00
-7046,76	735,00
-7028,98	594,00
-7011,24	607,00
-6993,53	656,00
-6975,85	616,00
-6958,20	546,00
-6940,59	607,00
-6923,01	508,00
-6905,46	709,00
-6887,94	631,00
-6870,46	-1562,00
-6853,01	804,00
-6835,59	707,00
-6818,21	583,00
-6800,85	729,00
-6783,53	615,00
-6766,24	507,00
-6748,98	628,00
-6731,76	464,00
-6714,56	470,00
-6697,40	377,00
-6680,26	438,00
-6663,16	507,00
-6646,09	639,00
-6629,05	603,00
-6612,05	626,00
-6595,07	604,00
-6578,13	681,00
-6561,21	574,00
-6544,33	554,00
-6527,47	443,00
-6510,65	609,00
-6493,86	376,00
-6477,10	424,00
-6460,36	514,00
-6443,66	351,00
-6426,99	517,00
-6410,35	412,00
-6393,74	529,00
-6377,16	355,00
-6360,61	544,00
-6344,09	481,00
-6327,59	447,00
-6311,13	650,00
-6294,70	513,00
-6278,29	513,00
-6261,92	485,00
-6245,58	615,00
-6229,26	627,00
-6212,97	597,00
-6196,72	416,00
-6180,49	529,00
-6164,29	409,00
-6148,12	506,00
-6131,98	545,00
-6115,86	424,00
-6099,78	474,00
-6083,72	415,00
-6067,69	384,00
-6051,69	449,00
-6035,72	491,00
-6019,78	424,00
-6003,87	532,00
-5987,98	488,00
-5972,12	559,00
-5956,29	532,00
-5940,49	446,00
-5924,71	572,00
-5908,96	430,00
-5893,24	385,00
-5877,55	478,00
-5861,89	458,00
-5846,25	317,00
-5830,64	468,00
-5815,05	427,00
-5799,50	319,00
-5783,97	420,00
-5768,47	364,00
-5752,99	543,00
-5737,55	445,00
-5722,12	486,00
-5706,73	570,00
-5691,36	468,00
-5676,02	382,00
-5660,71	376,00
-5645,42	422,00
-5630,16	463,00
-5614,92	498,00
-5599,71	465,00
-5584,53	432,00
-5569,37	432,00
-5554,24	560,00
-5539,14	464,00
-5524,06	454,00
-5509,01	472,00
-5493,98	499,00
-5478,98	480,00
-5464,00	426,00
-5449,05	448,00
-5434,13	428,00
-5419,23	332,00
-5404,36	374,00
-5389,51	393,00
-5374,69	430,00
-5359,89	540,00
-5345,12	551,00
-5330,37	545,00
-5315,65	448,00
-5300,95	474,00
-5286,28	463,00
-5271,63	372,00
-5257,01	457,00
-5242,41	449,00
-5227,84	381,00
-5213,29	469,00
-5198,76	408,00
-5184,26	404,00
-5169,79	349,00
-5155,33	377,00
-5140,91	463,00
-5126,51	496,00
-5112,13	472,00
-5097,77	432,00
-5083,44	506,00
-5069,13	385,00
-5054,85	411,00
-5040,59	431,00
-5026,36	423,00
-5012,15	499,00
-4997,96	526,00
-4983,80	466,00
-4969,66	387,00
-4955,54	380,00
-4941,44	387,00
-4927,37	334,00
-4913,33	485,00
-4899,30	446,00
-4885,30	513,00
-4871,33	385,00
-4857,37	367,00
-4843,44	307,00
-4829,53	412,00
-4815,65	530,00
-4801,79	336,00
-4787,95	546,00
-4774,13	458,00
-4760,34	391,00
-4746,56	379,00
-4732,82	385,00
-4719,09	394,00
-4705,38	473,00
-4691,70	467,00
-4678,04	595,00
-4664,41	519,00
-4650,79	497,00
-4637,20	301,00
-4623,63	393,00
-4610,08	481,00
-4596,56	404,00
-4583,05	403,00
-4569,57	335,00
-4556,11	426,00
-4542,67	405,00
-4529,25	369,00
-4515,86	358,00
-4502,49	488,00
-4489,13	448,00
-4475,80	482,00
-4462,49	348,00
-4449,21	353,00
-4435,94	409,00
-4422,70	335,00
-4409,47	346,00
-4396,27	400,00
-4383,09	307,00
-4369,93	402,00
-4356,79	300,00
-4343,67	382,00
-4330,58	461,00
-4317,50	516,00
-4304,45	430,00
-4291,41	341,00
-4278,40	377,00
-4265,41	284,00
-4252,44	365,00
-4239,49	276,00
-4226,55	438,00
-4213,65	321,00
-4200,76	373,00
-4187,89	420,00
-4175,04	360,00
-4162,21	288,00
-4149,40	362,00
-4136,61	396,00
-4123,85	273,00
-4111,10	343,00
-4098,37	323,00
-4085,66	420,00
-4072,98	346,00
-4060,31	350,00
-4047,66	437,00
-4035,04	417,00
-4022,43	297,00
-4009,84	285,00
-3997,27	222,00
-3984,72	378,00
-3972,19	366,00
-3959,69	353,00
-3947,20	377,00
-3934,73	323,00
-3922,27	329,00
-3909,84	282,00
-3897,43	330,00
-3885,04	355,00
-3872,67	339,00
-3860,31	298,00
-3847,98	368,00
-3835,66	340,00
-3823,36	324,00
-3811,09	309,00
-3798,83	264,00
-3786,59	406,00
-3774,37	385,00
-3762,17	299,00
-3749,98	366,00
-3737,82	337,00
-3725,67	460,00
-3713,55	338,00
-3701,44	358,00
-3689,35	307,00
-3677,28	393,00
-3665,22	352,00
-3653,19	291,00
-3641,17	351,00
-3629,18	352,00
-3617,20	288,00
-3605,24	320,00
-3593,30	426,00
-3581,37	410,00
-3569,47	396,00
-3557,58	402,00
-3545,71	335,00
-3533,86	390,00
-3522,02	307,00
-3510,21	361,00
-3498,41	391,00
-3486,63	292,00
-3474,87	337,00
-3463,12	310,00
-3451,40	353,00
-3439,69	350,00
-3428,00	309,00
-3416,33	320,00
-3404,67	249,00
-3393,03	330,00
-3381,41	386,00
-3369,81	385,00
-3358,22	410,00
-3346,66	391,00
-3335,10	372,00
-3323,57	251,00
-3312,06	307,00
-3300,56	314,00
-3289,08	320,00
-3277,61	263,00
-3266,16	330,00
-3254,73	293,00
-3243,32	376,00
-3231,92	267,00
-3220,55	352,00
-3209,18	433,00
-3197,84	334,00
-3186,51	286,00
-3175,20	362,00
-3163,90	290,00
-3152,63	357,00
-3141,36	318,00
-3130,12	379,00
-3118,89	452,00
-3107,68	286,00
-3096,49	249,00
-3085,31	229,00
-3074,15	348,00
-3063,00	385,00
-3051,87	300,00
-3040,76	286,00
-3029,67	439,00
-3018,59	413,00
-3007,52	424,00
-2996,48	333,00
-2985,44	335,00
-2974,43	321,00
-2963,43	331,00
-2952,45	390,00
-2941,48	296,00
-2930,53	422,00
-2919,60	313,00
-2908,68	331,00
-2897,78	338,00
-2886,89	311,00
-2876,02	402,00
-2865,17	298,00
-2854,33	376,00
-2843,50	308,00
-2832,70	400,00
-2821,90	302,00
-2811,13	377,00
-2800,37	375,00
-2789,62	323,00
-2778,89	382,00
-2768,18	351,00
-2757,48	339,00
-2746,80	364,00
-2736,13	311,00
-2725,48	449,00
-2714,84	290,00
-2704,22	308,00
-2693,61	240,00
-2683,02	345,00
-2672,45	467,00
-2661,89	313,00
-2651,34	276,00
-2640,81	262,00
-2630,30	366,00
-2619,80	304,00
-2609,31	358,00
-2598,84	350,00
-2588,39	350,00
-2577,95	309,00
-2567,52	269,00
-2557,11	203,00
-2546,71	337,00
-2536,33	357,00
-2525,97	321,00
-2515,62	331,00
-2505,28	296,00
-2494,96	350,00
-2484,65	424,00
-2474,36	490,00
-2464,08	271,00
-2453,82	468,00
-2443,57	281,00
-2433,33	241,00
-2423,11	382,00
-2412,91	420,00
-2402,72	313,00
-2392,54	302,00
-2382,38	405,00
-2372,23	380,00
-2362,09	-2743,00
-2351,97	309,00
-2341,87	293,00
-2331,78	370,00
-2321,70	316,00
-2311,64	344,00
-2301,59	391,00
-2291,55	280,00
-2281,53	307,00
-2271,53	320,00
-2261,53	450,00
-2251,55	342,00
-2241,59	343,00
-2231,64	338,00
-2221,70	344,00
-2211,78	289,00
-2201,87	450,00
-2191,97	336,00
-2182,09	370,00
-2172,22	373,00
-2162,37	228,00
-2152,53	274,00
-2142,70	400,00
-2132,89	409,00
-2123,09	408,00
-2113,30	314,00
-2103,53	354,00
-2093,77	384,00
-2084,02	387,00
-2074,29	355,00
-2064,57	407,00
-2054,86	377,00
-2045,17	434,00
-2035,49	358,00
-2025,82	281,00
-2016,17	352,00
-2006,53	291,00
-1996,91	322,00
-1987,29	292,00
-1977,69	381,00
-1968,11	281,00
-1958,53	283,00
-1948,97	261,00
-1939,42	292,00
-1929,89	320,00
-1920,37	287,00
-1910,86	346,00
-1901,36	308,00
-1891,88	386,00
-1882,41	316,00
-1872,95	333,00
-1863,51	327,00
-1854,08	355,00
-1844,66	396,00
-1835,26	417,00
-1825,86	409,00
-1816,48	287,00
-1807,11	426,00
-1797,76	335,00
-1788,42	381,00
-1779,09	338,00
-1769,77	259,00
-1760,47	440,00
-1751,17	260,00
-1741,89	299,00
-1732,63	376,00
-1723,37	421,00
-1714,13	344,00
-1704,90	357,00
-1695,68	480,00
-1686,48	274,00
-1677,29	283,00
-1668,11	396,00
-1658,94	281,00
-1649,78	306,00
-1640,64	381,00
-1631,51	288,00
-1622,39	403,00
-1613,28	400,00
-1604,19	465,00
-1595,10	307,00
-1586,03	268,00
-1576,97	382,00
-1567,93	295,00
-1558,89	374,00
-1549,87	417,00
-1540,86	334,00
-1531,86	287,00
-1522,87	339,00
-1513,90	346,00
-1504,93	389,00
-1495,98	408,00
-1487,04	346,00
-1478,12	285,00
-1469,20	360,00
-1460,30	308,00
-1451,40	463,00
-1442,52	304,00
-1433,65	424,00
-1424,80	328,00
-1415,95	299,00
-1407,12	437,00
-1398,30	321,00
-1389,48	370,00
-1380,69	360,00
-1371,90	270,00
-1363,12	403,00
-1354,36	383,00
-1345,60	344,00
-1336,86	268,00
-1328,13	399,00
-1319,41	295,00
-1310,70	294,00
-1302,01	276,00
-1293,32	319,00
-1284,65	364,00
-1275,99	371,00
-1267,33	401,00
-1258,69	365,00
-1250,06	310,00
-1241,45	256,00
-1232,84	496,00
-1224,25	346,00
-1215,66	329,00
-1207,09	374,00
-1198,53	276,00
-1189,97	382,00
-1181,43	250,00
-1172,91	339,00
-1164,39	352,00
-1155,88	319,00
-1147,38	248,00
-1138,90	324,00
-1130,43	308,00
-1121,96	374,00
-1113,51	353,00
-1105,07	358,00
-1096,64	371,00
-1088,22	321,00
-1079,81	404,00
-1071,41	347,00
-1063,02	313,00
-1054,65	356,00
-1046,28	365,00
-1037,92	316,00
-1029,58	315,00
-1021,24	427,00
-1012,92	417,00
-1004,61	352,00
-996,30	441,00
-988,01	333,00
-979,73	318,00
-971,46	272,00
-963,20	297,00
-954,95	354,00
-946,71	349,00
-938,48	389,00
-930,26	396,00
-922,06	334,00
-913,86	339,00
-905,67	278,00
-897,49	383,00
-889,33	194,00
-881,17	409,00
-873,02	392,00
-864,89	336,00
-856,76	356,00
-848,65	333,00
-840,54	401,00
-832,45	336,00
-824,36	320,00
-816,29	345,00
-808,22	348,00
-800,17	373,00
-792,12	298,00
-784,09	355,00
-776,06	372,00
-768,05	368,00
-760,04	374,00
-752,05	278,00
-744,07	396,00
-736,09	347,00
-728,13	234,00
-720,17	379,00
-712,23	335,00
-704,29	310,00
-696,37	266,00
-688,45	476,00
-680,55	352,00
-672,65	280,00
-664,77	341,00
-656,89	357,00
-649,03	316,00
-641,17	375,00
-633,32	349,00
-625,49	348,00
-617,66	321,00
-609,84	388,00
-602,03	293,00
-594,23	395,00
-586,45	354,00
-578,67	351,00
-570,90	389,00
-563,14	218,00
-555,39	422,00
-547,65	246,00
-539,91	372,00
-532,19	407,00
-524,48	304,00
-516,78	330,00
-509,08	442,00
-501,40	399,00
-493,72	398,00
-486,06	278,00
-478,40	425,00
-470,76	219,00
-463,12	341,00
-455,49	316,00
-447,87	360,00
-440,26	340,00
-432,66	321,00
-425,07	299,00
-417,49	399,00
-409,92	266,00
-402,35	312,00
-394,80	280,00
-387,25	379,00
-379,72	399,00
-372,19	399,00
-364,67	447,00
-357,17	296,00
-349,67	355,00
-342,18	296,00
-334,69	440,00
-327,22	380,00
-319,76	356,00
-312,30	432,00
-304,86	362,00
-297,42	392,00
-290,00	253,00
-282,58	396,00
-275,17	335,00
-267,77	425,00
-260,37	373,00
-252,99	541,00
-245,62	439,00
-238,25	410,00
-230,90	402,00
-223,55	471,00
-216,21	408,00
-208,88	471,00
-201,56	397,00
-194,25	525,00
-186,94	540,00
-179,65	537,00
-172,36	552,00
-165,08	536,00
-157,81	640,00
-150,55	666,00
-143,30	630,00
-136,06	764,00
-128,82	700,00
-121,60	729,00
-114,38	786,00
-107,17	922,00
-99,97	1081,00
-92,78	1097,00
-85,60	1178,00
-78,42	1339,00
-71,25	1476,00
-64,10	1717,00
-56,95	1970,00
-49,81	2279,00
-42,67	2749,00
-35,55	3460,00
-28,43	4382,00
-21,33	7028,00
-14,23	22112,00
-7,14	57498,00
-0,05	57284,00
7,02	57012,00
14,09	57319,00
21,14	19727,00
28,19	8299,00
35,23	5468,00
42,27	4409,00
49,29	3488,00
56,31	3014,00
63,32	2603,00
70,32	2165,00
77,31	1956,00
84,29	1685,00
91,27	1671,00
98,23	1578,00
105,19	1421,00
112,14	1792,00
119,09	2732,00
126,02	4679,00
132,95	5838,00
139,87	6175,00
146,78	6327,00
153,68	6338,00
160,58	6252,00
167,46	6096,00
174,34	6193,00
181,21	6225,00
188,08	6079,00
194,93	6185,00
201,78	6185,00
208,62	6338,00
215,45	6511,00
222,27	6382,00
229,09	6474,00
235,90	6209,00
242,70	6221,00
249,49	6368,00
256,27	6115,00
263,05	6341,00
269,82	6227,00
276,58	6257,00
283,33	6080,00
290,08	6128,00
296,82	6135,00
303,55	6029,00
310,27	5914,00
316,98	6053,00
323,69	5948,00
330,39	5928,00
337,08	5960,00
343,76	6059,00
350,44	6129,00
357,11	5892,00
363,77	5995,00
370,42	6013,00
377,07	5940,00
383,71	5982,00
390,34	5960,00
396,96	6072,00
403,58	5986,00
410,19	5976,00
416,79	6029,00
423,38	6151,00
429,97	6021,00
436,55	5933,00
443,12	5744,00
449,68	5767,00
456,24	5775,00
462,79	5782,00
469,33	5652,00
475,86	5722,00
482,39	5684,00
488,91	5730,00
495,42	5571,00
501,93	5741,00
508,42	5638,00
514,91	5427,00
521,40	5471,00
527,87	5504,00
534,34	5388,00
540,80	5317,00
547,25	5512,00
553,70	5451,00
560,14	5526,00
566,57	5471,00
573,00	5518,00
579,41	5496,00
585,83	5475,00
592,23	5509,00
598,62	5475,00
605,01	5385,00
611,40	5433,00
617,77	5359,00
624,14	5399,00
630,50	5408,00
636,85	5344,00
643,20	5389,00
649,54	5337,00
655,87	5266,00
662,20	5199,00
668,52	5176,00
674,83	5200,00
681,13	5239,00
687,43	5268,00
693,72	5064,00
700,00	5144,00
706,28	5173,00
712,55	5150,00
718,81	5042,00
725,07	5133,00
731,32	5096,00
737,56	5140,00
743,79	5137,00
750,02	5185,00
756,24	4899,00
762,46	5054,00
768,67	5119,00
774,87	5098,00
781,06	5107,00
787,25	5049,00
793,43	4973,00
799,60	4876,00
805,77	5087,00
811,93	4987,00
818,08	5053,00
824,23	5030,00
830,37	5094,00
836,50	4907,00
842,63	4884,00
848,75	4907,00
854,87	4824,00
860,97	4945,00
867,07	4766,00
873,17	4776,00
879,25	4762,00
885,33	4764,00
891,41	4782,00
897,47	4815,00
903,53	4703,00
909,59	4780,00
915,63	4718,00
921,67	4720,00
927,71	4685,00
933,74	4732,00
939,76	4487,00
945,77	4713,00
951,78	4713,00
957,78	4625,00
963,78	4702,00
969,77	4714,00
975,75	4645,00
981,72	4657,00
987,69	5237,00
993,66	4755,00
999,61	4669,00
1005,56	4787,00
1011,51	4654,00
1017,44	4689,00
1023,37	4685,00
1029,30	4618,00
1035,22	4638,00
1041,13	4592,00
1047,03	4641,00
1052,93	4704,00
1058,83	4773,00
1064,71	4957,00
1070,59	4886,00
1076,47	4638,00
1082,33	4635,00
1088,20	4576,00
1094,05	4467,00
1099,90	4329,00
1105,74	4517,00
1111,58	4445,00
1117,41	4485,00
1123,23	4604,00
1129,05	4754,00
1134,86	4621,00
1140,67	4491,00
1146,47	4471,00
1152,26	4554,00
1158,05	4473,00
1163,83	4416,00
1169,60	4460,00
1175,37	4490,00
1181,13	4501,00
1186,89	4379,00
1192,64	4304,00
1198,38	4475,00
1204,12	4368,00
1209,85	4394,00
1215,58	4403,00
1221,30	4383,00
1227,02	4533,00
1232,72	4411,00
1238,43	4343,00
1244,12	4395,00
1249,81	4451,00
1255,50	4373,00
1261,17	4408,00
1266,85	4441,00
1272,51	4407,00
1278,17	4515,00
1283,83	4379,00
1289,47	4588,00
1295,12	4761,00
1300,75	4711,00
1306,38	4582,00
1312,01	4565,00
1317,63	4366,00
1323,24	4390,00
1328,85	4336,00
1334,45	4441,00
1340,04	4443,00
1345,63	4325,00
1351,22	4426,00
1356,80	4386,00
1362,37	4497,00
1367,93	4380,00
1373,49	4526,00
1379,05	4494,00
1384,60	4463,00
1390,14	4501,00
1395,68	4432,00
1401,21	4408,00
1406,74	4362,00
1412,26	4620,00
1417,77	4730,00
1423,28	4597,00
1428,78	4572,00
1434,28	4828,00
1439,77	4898,00
1445,26	4759,00
1450,74	4853,00
1456,22	4746,00
1461,68	4607,00
1467,15	4613,00
1472,61	4451,00
1478,06	4420,00
1483,51	4315,00
1488,95	4227,00
1494,38	4341,00
1499,81	4274,00
1505,24	4210,00
1510,65	4293,00
1516,07	4129,00
1521,48	4165,00
1526,88	4020,00
1532,27	4023,00
1537,67	4111,00
1543,05	4060,00
1548,43	4012,00
1553,81	4060,00
1559,18	3971,00
1564,54	3980,00
1569,90	3947,00
1575,25	3894,00
1580,60	3892,00
1585,94	3901,00
1591,28	3855,00
1596,61	3930,00
1601,93	3851,00
1607,25	3878,00
1612,57	3802,00
1617,88	3842,00
1623,18	3932,00
1628,48	3705,00
1633,77	3812,00
1639,06	3794,00
1644,34	3754,00
1649,62	3747,00
1654,89	3699,00
1660,16	3628,00
1665,42	3832,00
1670,67	3698,00
1675,92	3469,00
1681,17	3492,00
1686,41	3630,00
1691,64	3577,00
1696,87	3584,00
1702,10	3562,00
1707,32	3529,00
1712,53	3478,00
1717,74	3417,00
1722,94	3650,00
1728,14	3402,00
1733,33	3525,00
1738,52	3413,00
1743,70	3385,00
1748,88	3332,00
1754,05	3456,00
1759,22	3335,00
1764,38	3440,00
1769,53	3358,00
1774,69	3299,00
1779,83	3236,00
1784,97	3268,00
1790,11	3288,00
1795,24	3144,00
1800,36	3262,00
1805,48	3195,00
1810,60	3176,00
1815,71	3142,00
1820,82	3157,00
1825,92	3145,00
1831,01	3181,00
1836,10	3158,00
1841,19	3245,00
1846,26	3028,00
1851,34	3194,00
1856,41	3114,00
1861,47	3094,00
1866,53	3166,00
1871,59	3012,00
1876,64	3128,00
1881,68	3070,00
1886,72	3035,00
1891,76	3046,00
1896,79	2940,00
1901,81	2878,00
1906,83	3003,00
1911,85	2923,00
1916,86	2935,00
1921,86	2829,00
1926,86	2850,00
1931,86	2860,00
1936,85	2791,00
1941,83	2757,00
1946,81	2699,00
1951,79	2596,00
1956,76	2772,00
1961,72	2633,00
1966,68	2617,00
1971,64	2682,00
1976,59	2668,00
1981,54	2671,00
1986,48	2731,00
1991,42	2585,00
1996,35	2659,00
2001,27	2685,00
2006,20	2618,00
2011,11	2624,00
2016,03	2604,00
2020,93	2508,00
2025,84	2610,00
2030,73	2509,00
2035,63	2502,00
2040,52	2446,00
2045,40	2501,00
2050,28	2494,00
2055,15	2488,00
2060,02	2431,00
2064,89	2524,00
2069,75	2510,00
2074,60	2463,00
2079,46	2323,00
2084,30	2401,00
2089,14	2222,00
2093,98	2405,00
2098,81	2379,00
2103,64	2325,00
2108,46	2470,00
2113,28	2428,00
2118,09	2415,00
2122,90	2429,00
2127,70	2343,00
2132,50	2320,00
2137,30	2290,00
2142,09	2231,00
2146,87	2302,00
2151,66	2233,00
2156,43	2113,00
2161,20	2262,00
2165,97	2238,00
2170,73	2190,00
2175,49	2266,00
2180,24	2241,00
2184,99	2334,00
2189,74	2266,00
2194,48	2265,00
2199,21	2173,00
2203,94	2250,00
2208,67	2038,00
2213,39	2020,00
2218,11	2162,00
2222,82	2109,00
2227,53	2135,00
2232,23	2070,00
2236,93	2064,00
2241,63	2054,00
2246,32	2052,00
2251,00	2111,00
2255,68	2015,00
2260,36	1977,00
2265,03	2138,00
2269,70	2136,00
2274,36	2038,00
2279,02	2009,00
2283,68	1970,00
2288,33	1990,00
2292,97	1915,00
2297,61	1943,00
2302,25	1922,00
2306,88	1968,00
2311,51	1927,00
2316,14	1880,00
2320,75	1871,00
2325,37	1858,00
2329,98	1888,00
2334,59	1948,00
2339,19	1781,00
2343,79	1832,00
2348,38	1875,00
2352,97	1780,00
2357,55	1817,00
2362,13	1751,00
2366,71	1758,00
2371,28	1739,00
2375,85	1768,00
2380,41	1828,00
2384,97	1710,00
2389,52	1773,00
2394,07	1840,00
2398,62	1720,00
2403,16	1813,00
2407,70	1591,00
2412,23	1611,00
2416,76	1723,00
2421,29	1707,00
2425,81	1814,00
2430,32	1752,00
2434,84	1585,00
2439,34	1621,00
2443,85	1787,00
2448,35	1634,00
2452,84	1611,00
2457,33	1609,00
2461,82	1534,00
2466,30	1493,00
2470,78	1491,00
2475,25	1607,00
2479,72	1612,00
2484,19	1714,00
2488,65	1560,00
2493,11	1555,00
2497,56	1622,00
2502,01	1406,00
2506,46	1483,00
2510,90	1549,00
2515,34	1412,00
2519,77	1535,00
2524,20	1595,00
2528,62	1496,00
2533,04	1514,00
2537,46	1443,00
2541,87	1479,00
2546,28	1448,00
2550,68	1512,00
2555,08	1449,00
2559,48	1414,00
2563,87	1338,00
2568,26	1401,00
2572,64	1441,00
2577,02	1411,00
2581,40	1307,00
2585,77	1369,00
2590,14	1323,00
2594,50	1335,00
2598,86	1418,00
2603,22	1333,00
2607,57	1260,00
2611,92	1264,00
2616,26	1412,00
2620,60	1365,00
2624,94	1298,00
2629,27	1242,00
2633,60	1276,00
2637,92	1278,00
2642,24	1293,00
2646,56	1200,00
2650,87	1190,00
2655,18	1227,00
2659,48	1169,00
2663,78	1233,00
2668,08	1203,00
2672,37	1241,00
2676,66	1200,00
2680,95	1126,00
2685,23	1225,00
2689,50	1153,00
2693,78	1212,00
2698,05	1090,00
2702,31	1197,00
2706,57	1297,00
2710,83	1254,00
2715,08	1353,00
2719,33	1166,00
2723,58	1208,00
2727,82	1251,00
2732,06	1267,00
2736,29	1135,00
2740,53	1189,00
2744,75	1101,00
2748,97	1114,00
2753,19	1108,00
2757,41	1161,00
2761,62	1183,00
2765,83	1116,00
2770,03	1197,00
2774,23	1160,00
2778,43	1086,00
2782,62	1133,00
2786,81	1185,00
2791,00	1065,00
2795,18	1020,00
2799,35	1100,00
2803,53	1087,00
2807,70	1072,00
2811,86	1128,00
2816,03	1191,00
2820,19	1102,00
2824,34	1097,00
2828,49	1103,00
2832,64	1178,00
2836,78	1275,00
2840,92	1347,00
2845,06	1436,00
2849,19	1574,00
2853,32	1595,00
2857,45	1429,00
2861,57	1535,00
2865,69	1508,00
2869,80	1425,00
2873,91	1433,00
2878,02	1536,00
2882,12	1514,00
2886,22	1557,00
2890,32	1458,00
2894,41	1490,00
2898,50	1475,00
2902,58	1384,00
2906,67	1366,00
2910,74	1248,00
2914,82	1231,00
2918,89	1335,00
2922,96	1186,00
2927,02	1134,00
2931,08	1124,00
2935,13	1057,00
2939,19	1103,00
2943,24	951,00
2947,28	1080,00
2951,32	985,00
2955,36	974,00
2959,40	982,00
2963,43	917,00
2967,46	939,00
2971,48	915,00
2975,50	797,00
2979,52	907,00
2983,53	810,00
2987,54	858,00
2991,55	845,00
2995,55	793,00
2999,55	782,00
3003,54	755,00
3007,54	891,00
3011,53	811,00
3015,51	799,00
3019,49	758,00
3023,47	802,00
3027,45	792,00
3031,42	683,00
3035,39	793,00
3039,35	730,00
3043,31	737,00
3047,27	697,00
3051,22	753,00
3055,17	723,00
3059,12	650,00
3063,06	735,00
3067,00	693,00
3070,94	632,00
3074,87	791,00
3078,80	692,00
3082,73	735,00
3086,65	646,00
3090,57	733,00
3094,49	674,00
3098,40	644,00
3102,31	651,00
3106,22	667,00
3110,12	643,00
3114,02	519,00
3117,92	578,00
3121,81	640,00
3125,70	610,00
3129,58	661,00
3133,47	531,00
3137,34	683,00
3141,22	708,00
3145,09	603,00
3148,96	597,00
3152,83	713,00
3156,69	608,00
3160,55	582,00
3164,40	702,00
3168,26	619,00
3172,10	704,00
3175,95	647,00
3179,79	551,00
3183,63	652,00
3187,47	549,00
3191,30	651,00
3195,13	533,00
3198,95	498,00
3202,78	625,00
3206,60	552,00
3210,41	572,00
3214,23	609,00
3218,03	521,00
3221,84	612,00
3225,64	554,00
3229,44	490,00
3233,24	527,00
3237,03	515,00
3240,82	502,00
3244,61	469,00
3248,39	574,00
3252,17	598,00
3255,95	539,00
3259,72	448,00
3263,49	663,00
3267,26	455,00
3271,03	613,00
3274,79	470,00
3278,54	518,00
3282,30	481,00
3286,05	563,00
3289,80	508,00
3293,54	511,00
3297,29	547,00
3301,02	476,00
3304,76	521,00
3308,49	543,00
3312,22	452,00
3315,95	478,00
3319,67	432,00
3323,39	575,00
3327,10	492,00
3330,82	502,00
3334,53	502,00
3338,24	524,00
3341,94	483,00
3345,64	565,00
3349,34	398,00
3353,03	471,00
3356,72	520,00
3360,41	480,00
3364,10	410,00
3367,78	454,00
3371,46	377,00
3375,13	489,00
3378,81	505,00
3382,48	459,00
3386,14	492,00
3389,81	496,00
3393,47	436,00
3397,12	554,00
3400,78	483,00
3404,43	384,00
3408,08	527,00
3411,72	400,00
3415,36	358,00
3419,00	475,00
3422,64	451,00
3426,27	469,00
3429,90	495,00
3433,53	357,00
3437,15	446,00
3440,77	329,00
3444,39	328,00
3448,00	514,00
3451,62	321,00
3455,22	429,00
3458,83	406,00
3462,43	454,00
3466,03	467,00
3469,63	371,00
3473,22	356,00
3476,81	296,00
3480,40	494,00
3483,99	434,00
3487,57	309,00
3491,15	366,00
3494,72	429,00
3498,29	410,00
3501,86	315,00
3505,43	352,00
3508,99	354,00
3512,56	295,00
3516,11	432,00
3519,67	311,00
3523,22	358,00
3526,77	360,00
3530,32	533,00
3533,86	349,00
3537,40	412,00
3540,94	389,00
3544,47	388,00
3548,00	338,00
3551,53	407,00
3555,06	332,00
3558,58	352,00
3562,10	349,00
3565,62	335,00
3569,13	380,00
3572,64	458,00
3576,15	307,00
3579,66	309,00
3583,16	361,00
3586,66	449,00
3590,16	323,00
3593,65	293,00
3597,14	304,00
3600,63	328,00
3604,11	349,00
3607,60	385,00
3611,08	386,00
3614,55	329,00
3618,03	344,00
3621,50	266,00
3624,97	266,00
3628,43	378,00
3631,90	299,00
3635,36	258,00
3638,81	341,00
3642,27	292,00
3645,72	378,00
3649,17	299,00
3652,61	314,00
3656,06	283,00
3659,50	321,00
3662,93	291,00
3666,37	381,00
3669,80	473,00
3673,23	362,00
3676,65	271,00
3680,08	359,00
3683,50	294,00
3686,92	394,00
3690,33	371,00
3693,74	328,00
3697,15	315,00
3700,56	399,00
3703,96	402,00
3707,36	202,00
3710,76	315,00
3714,16	287,00
3717,55	290,00
3720,94	222,00
3724,33	303,00
3727,71	345,00
3731,10	337,00
3734,48	266,00
3737,85	268,00
3741,23	299,00
3744,60	288,00
3747,97	284,00
3751,33	354,00
3754,69	269,00
3758,05	336,00
3761,41	322,00
3764,77	313,00
3768,12	252,00
3771,47	194,00
3774,82	239,00
3778,16	-3,00
3781,50	8,00
3784,84	1,00
3788,18	8,00
>>>>>End Processed Spectral Data<<<<<
