SpectraSuite Data File
++++++++++++++++++++++++++++++++++++
Date: Mon Jan 05 16:28:37 ICT 2026
User: Administrator
Dark Spectrum Present: Yes
Reference Spectrum Present: No
Number of Sampled Component Spectra: 1
Spectrometers: MAYP113682
Integration Time (usec): 3000000 (MAYP113682)
Spectra Averaged: 1 (MAYP113682)
Boxcar Smoothing: 0 (MAYP113682)
Correct for Electrical Dark: No (MAYP113682)
Strobe/Lamp Enabled: No (MAYP113682)
Correct for Detector Non-linearity: No (MAYP113682)
Correct for Stray Light: No (MAYP113682)
Number of Pixels in Processed Spectrum: 2068
>>>>>Begin Processed Spectral Data<<<<<
-37534,58	25,00
-37414,56	9,00
-37295,11	9,00
-37176,24	2,00
-37057,95	401,00
-36940,22	549,00
-36823,05	544,00
-36706,45	458,00
-36590,40	556,00
-36474,90	509,00
-36359,95	581,00
-36245,55	629,00
-36131,68	474,00
-36018,35	548,00
-35905,55	567,00
-35793,29	624,00
-35681,54	491,00
-35570,32	596,00
-35459,62	526,00
-35349,43	659,00
-35239,75	563,00
-35130,58	498,00
-35021,91	505,00
-34913,74	547,00
-34806,07	515,00
-34698,89	662,00
-34592,20	560,00
-34486,00	607,00
-34380,28	640,00
-34275,04	637,00
-34170,27	534,00
-34065,98	635,00
-33962,16	635,00
-33858,81	568,00
-33755,92	520,00
-33653,49	674,00
-33551,52	672,00
-33450,01	616,00
-33348,94	548,00
-33248,33	570,00
-33148,16	604,00
-33048,43	586,00
-32949,14	672,00
-32850,29	677,00
-32751,87	634,00
-32653,89	628,00
-32556,33	650,00
-32459,20	627,00
-32362,49	561,00
-32266,19	594,00
-32170,32	465,00
-32074,86	675,00
-31979,82	679,00
-31885,18	698,00
-31790,95	636,00
-31697,12	654,00
-31603,69	719,00
-31510,67	723,00
-31418,04	642,00
-31325,80	610,00
-31233,95	476,00
-31142,49	661,00
-31051,42	526,00
-30960,73	691,00
-30870,43	684,00
-30780,50	666,00
-30690,95	691,00
-30601,77	736,00
-30512,97	573,00
-30424,53	654,00
-30336,46	595,00
-30248,76	602,00
-30161,42	757,00
-30074,44	620,00
-29987,81	657,00
-29901,55	748,00
-29815,63	584,00
-29730,07	656,00
-29644,86	759,00
-29560,00	613,00
-29475,48	720,00
-29391,30	673,00
-29307,47	660,00
-29223,97	603,00
-29140,81	709,00
-29057,99	715,00
-28975,50	544,00
-28893,34	759,00
-28811,51	575,00
-28730,00	685,00
-28648,82	585,00
-28567,97	589,00
-28487,43	645,00
-28407,21	630,00
-28327,32	596,00
-28247,73	670,00
-28168,46	542,00
-28089,50	634,00
-28010,85	524,00
-27932,51	605,00
-27854,48	647,00
-27776,75	505,00
-27699,32	606,00
-27622,19	660,00
-27545,37	667,00
-27468,84	743,00
-27392,60	700,00
-27316,66	585,00
-27241,01	636,00
-27165,66	588,00
-27090,59	504,00
-27015,81	690,00
-26941,31	700,00
-26867,10	633,00
-26793,17	690,00
-26719,52	659,00
-26646,15	518,00
-26573,06	621,00
-26500,24	593,00
-26427,70	562,00
-26355,43	508,00
-26283,43	633,00
-26211,71	652,00
-26140,25	630,00
-26069,06	685,00
-25998,13	601,00
-25927,46	661,00
-25857,06	506,00
-25786,92	626,00
-25717,04	511,00
-25647,42	714,00
-25578,05	562,00
-25508,94	553,00
-25440,09	680,00
-25371,48	659,00
-25303,13	718,00
-25235,02	622,00
-25167,17	634,00
-25099,56	685,00
-25032,19	563,00
-24965,07	549,00
-24898,20	550,00
-24831,56	527,00
-24765,17	748,00
-24699,01	621,00
-24633,10	633,00
-24567,41	684,00
-24501,97	629,00
-24436,75	670,00
-24371,77	611,00
-24307,03	594,00
-24242,51	657,00
-24178,22	493,00
-24114,16	660,00
-24050,32	607,00
-23986,71	625,00
-23923,32	590,00
-23860,16	620,00
-23797,22	599,00
-23734,50	576,00
-23672,00	589,00
-23609,71	631,00
-23547,65	575,00
-23485,80	717,00
-23424,16	512,00
-23362,74	771,00
-23301,53	563,00
-23240,54	516,00
-23179,75	590,00
-23119,17	554,00
-23058,80	647,00
-22998,64	666,00
-22938,68	553,00
-22878,93	644,00
-22819,39	541,00
-22760,04	501,00
-22700,90	659,00
-22641,96	600,00
-22583,22	558,00
-22524,68	628,00
-22466,33	598,00
-22408,19	604,00
-22350,23	559,00
-22292,48	617,00
-22234,92	581,00
-22177,55	718,00
-22120,37	725,00
-22063,38	578,00
-22006,58	534,00
-21949,98	575,00
-21893,56	555,00
-21837,33	579,00
-21781,28	604,00
-21725,42	649,00
-21669,74	631,00
-21614,25	637,00
-21558,94	613,00
-21503,81	665,00
-21448,86	633,00
-21394,10	643,00
-21339,51	593,00
-21285,10	534,00
-21230,86	597,00
-21176,81	582,00
-21122,93	577,00
-21069,22	530,00
-21015,69	558,00
-20962,33	705,00
-20909,14	520,00
-20856,13	578,00
-20803,28	642,00
-20750,61	624,00
-20698,10	527,00
-20645,76	571,00
-20593,59	683,00
-20541,59	565,00
-20489,75	629,00
-20438,07	474,00
-20386,56	605,00
-20335,22	556,00
-20284,03	525,00
-20233,01	604,00
-20182,15	547,00
-20131,45	624,00
-20080,91	559,00
-20030,52	592,00
-19980,30	535,00
-19930,23	519,00
-19880,32	627,00
-19830,56	512,00
-19780,96	630,00
-19731,52	586,00
-19682,23	642,00
-19633,09	624,00
-19584,10	532,00
-19535,26	627,00
-19486,58	658,00
-19438,04	576,00
-19389,66	664,00
-19341,42	578,00
-19293,33	544,00
-19245,39	591,00
-19197,60	631,00
-19149,95	673,00
-19102,45	589,00
-19055,09	496,00
-19007,87	597,00
-18960,80	580,00
-18913,87	550,00
-18867,09	579,00
-18820,44	738,00
-18773,94	614,00
-18727,57	593,00
-18681,35	554,00
-18635,26	622,00
-18589,31	488,00
-18543,50	605,00
-18497,83	529,00
-18452,29	609,00
-18406,89	522,00
-18361,63	711,00
-18316,50	689,00
-18271,50	611,00
-18226,63	600,00
-18181,90	542,00
-18137,30	565,00
-18092,84	634,00
-18048,50	696,00
-18004,29	611,00
-17960,22	530,00
-17916,27	539,00
-17872,45	687,00
-17828,76	675,00
-17785,20	621,00
-17741,77	584,00
-17698,46	546,00
-17655,28	643,00
-17612,22	647,00
-17569,29	590,00
-17526,48	630,00
-17483,79	715,00
-17441,23	520,00
-17398,79	580,00
-17356,48	499,00
-17314,28	650,00
-17272,21	560,00
-17230,26	609,00
-17188,42	581,00
-17146,71	623,00
-17105,12	506,00
-17063,64	601,00
-17022,28	529,00
-16981,04	546,00
-16939,92	674,00
-16898,91	664,00
-16858,02	507,00
-16817,25	610,00
-16776,59	525,00
-16736,04	579,00
-16695,61	690,00
-16655,29	527,00
-16615,09	555,00
-16574,99	581,00
-16535,01	569,00
-16495,15	663,00
-16455,39	579,00
-16415,74	526,00
-16376,21	573,00
-16336,78	549,00
-16297,46	609,00
-16258,26	543,00
-16219,16	547,00
-16180,17	626,00
-16141,28	684,00
-16102,51	629,00
-16063,84	589,00
-16025,27	620,00
-15986,82	494,00
-15948,46	630,00
-15910,22	610,00
-15872,07	555,00
-15834,04	588,00
-15796,10	547,00
-15758,27	783,00
-15720,54	603,00
-15682,91	600,00
-15645,39	729,00
-15607,97	674,00
-15570,64	585,00
-15533,42	680,00
-15496,30	603,00
-15459,28	715,00
-15422,36	603,00
-15385,54	587,00
-15348,82	574,00
-15312,19	719,00
-15275,66	541,00
-15239,23	716,00
-15202,90	576,00
-15166,67	661,00
-15130,53	636,00
-15094,48	723,00
-15058,54	505,00
-15022,68	556,00
-14986,93	541,00
-14951,26	673,00
-14915,69	675,00
-14880,22	583,00
-14844,84	545,00
-14809,55	636,00
-14774,35	619,00
-14739,25	634,00
-14704,24	575,00
-14669,32	609,00
-14634,49	605,00
-14599,75	619,00
-14565,10	541,00
-14530,55	648,00
-14496,08	616,00
-14461,70	640,00
-14427,41	593,00
-14393,21	524,00
-14359,10	542,00
-14325,07	620,00
-14291,14	507,00
-14257,29	600,00
-14223,52	625,00
-14189,85	651,00
-14156,26	593,00
-14122,76	488,00
-14089,34	582,00
-14056,01	602,00
-14022,76	636,00
-13989,60	672,00
-13956,52	690,00
-13923,53	640,00
-13890,62	573,00
-13857,79	633,00
-13825,05	509,00
-13792,39	496,00
-13759,81	623,00
-13727,31	565,00
-13694,90	606,00
-13662,57	659,00
-13630,31	712,00
-13598,14	630,00
-13566,05	600,00
-13534,05	596,00
-13502,12	574,00
-13470,27	562,00
-13438,50	653,00
-13406,80	509,00
-13375,19	586,00
-13343,66	589,00
-13312,20	606,00
-13280,83	558,00
-13249,53	630,00
-13218,30	467,00
-13187,16	591,00
-13156,09	774,00
-13125,10	720,00
-13094,18	608,00
-13063,34	664,00
-13032,58	469,00
-13001,89	595,00
-12971,28	627,00
-12940,74	609,00
-12910,27	603,00
-12879,88	593,00
-12849,57	655,00
-12819,33	633,00
-12789,16	717,00
-12759,06	594,00
-12729,04	558,00
-12699,09	1640,00
-12669,21	537,00
-12639,41	606,00
-12609,68	529,00
-12580,02	620,00
-12550,43	683,00
-12520,91	534,00
-12491,46	576,00
-12462,08	543,00
-12432,77	602,00
-12403,54	571,00
-12374,37	548,00
-12345,27	654,00
-12316,24	556,00
-12287,29	677,00
-12258,40	598,00
-12229,57	707,00
-12200,82	541,00
-12172,14	605,00
-12143,52	412,00
-12114,97	654,00
-12086,49	611,00
-12058,07	648,00
-12029,73	563,00
-12001,44	708,00
-11973,23	606,00
-11945,08	651,00
-11917,00	599,00
-11888,98	573,00
-11861,03	703,00
-11833,15	601,00
-11805,32	663,00
-11777,57	642,00
-11749,88	665,00
-11722,25	526,00
-11694,69	606,00
-11667,19	577,00
-11639,75	734,00
-11612,38	573,00
-11585,07	604,00
-11557,83	577,00
-11530,65	733,00
-11503,53	488,00
-11476,47	612,00
-11449,48	553,00
-11422,54	747,00
-11395,67	625,00
-11368,86	674,00
-11342,11	543,00
-11315,43	541,00
-11288,80	615,00
-11262,23	689,00
-11235,73	602,00
-11209,28	818,00
-11182,90	605,00
-11156,57	574,00
-11130,31	688,00
-11104,10	597,00
-11077,96	548,00
-11051,87	591,00
-11025,84	535,00
-10999,87	646,00
-10973,96	611,00
-10948,11	545,00
-10922,31	658,00
-10896,58	640,00
-10870,90	764,00
-10845,28	677,00
-10819,71	562,00
-10794,20	643,00
-10768,75	582,00
-10743,36	582,00
-10718,02	528,00
-10692,74	553,00
-10667,52	653,00
-10642,35	557,00
-10617,24	593,00
-10592,18	572,00
-10567,18	636,00
-10542,23	676,00
-10517,34	638,00
-10492,51	629,00
-10467,72	616,00
-10443,00	617,00
-10418,32	678,00
-10393,70	658,00
-10369,14	564,00
-10344,63	589,00
-10320,17	669,00
-10295,77	661,00
-10271,42	638,00
-10247,12	661,00
-10222,88	723,00
-10198,68	590,00
-10174,54	597,00
-10150,46	661,00
-10126,42	705,00
-10102,44	554,00
-10078,51	524,00
-10054,63	667,00
-10030,80	578,00
-10007,03	692,00
-9983,30	676,00
-9959,63	639,00
-9936,01	735,00
-9912,44	617,00
-9888,92	671,00
-9865,44	615,00
-9842,02	646,00
-9818,65	717,00
-9795,33	539,00
-9772,06	640,00
-9748,84	525,00
-9725,67	647,00
-9702,55	613,00
-9679,47	633,00
-9656,45	747,00
-9633,47	586,00
-9610,55	590,00
-9587,67	692,00
-9564,84	815,00
-9542,06	583,00
-9519,32	687,00
-9496,64	838,00
-9474,00	731,00
-9451,41	700,00
-9428,87	623,00
-9406,37	697,00
-9383,92	535,00
-9361,52	560,00
-9339,17	693,00
-9316,86	675,00
-9294,60	754,00
-9272,38	655,00
-9250,21	810,00
-9228,09	727,00
-9206,01	858,00
-9183,98	678,00
-9162,00	665,00
-9140,06	866,00
-9118,16	585,00
-9096,31	624,00
-9074,51	592,00
-9052,75	756,00
-9031,04	714,00
-9009,37	688,00
-8987,74	655,00
-8966,16	587,00
-8944,63	528,00
-8923,14	672,00
-8901,69	557,00
-8880,29	555,00
-8858,93	656,00
-8837,61	810,00
-8816,34	750,00
-8795,11	737,00
-8773,92	575,00
-8752,78	629,00
-8731,68	592,00
-8710,62	716,00
-8689,61	582,00
-8668,63	652,00
-8647,70	838,00
-8626,82	652,00
-8605,97	717,00
-8585,17	647,00
-8564,41	652,00
-8543,69	661,00
-8523,01	526,00
-8502,37	764,00
-8481,78	580,00
-8461,23	543,00
-8440,71	673,00
-8420,24	644,00
-8399,81	847,00
-8379,42	701,00
-8359,08	768,00
-8338,77	588,00
-8318,50	491,00
-8298,27	462,00
-8278,09	654,00
-8257,94	530,00
-8237,83	790,00
-8217,76	677,00
-8197,74	710,00
-8177,75	699,00
-8157,80	592,00
-8137,89	645,00
-8118,02	609,00
-8098,19	655,00
-8078,40	671,00
-8058,65	564,00
-8038,93	665,00
-8019,26	652,00
-7999,62	690,00
-7980,02	574,00
-7960,46	521,00
-7940,94	514,00
-7921,46	593,00
-7902,01	476,00
-7882,60	696,00
-7863,23	527,00
-7843,90	613,00
-7824,61	644,00
-7805,35	743,00
-7786,13	603,00
-7766,95	669,00
-7747,80	618,00
-7728,69	728,00
-7709,62	633,00
-7690,59	685,00
-7671,59	768,00
-7652,63	621,00
-7633,70	633,00
-7614,81	633,00
-7595,96	616,00
-7577,15	540,00
-7558,37	584,00
-7539,62	629,00
-7520,91	585,00
-7502,24	617,00
-7483,60	647,00
-7465,00	588,00
-7446,44	662,00
-7427,91	573,00
-7409,41	534,00
-7390,95	640,00
-7372,53	517,00
-7354,14	539,00
-7335,78	471,00
-7317,46	578,00
-7299,18	513,00
-7280,92	510,00
-7262,71	654,00
-7244,52	609,00
-7226,38	537,00
-7208,26	536,00
-7190,18	527,00
-7172,14	544,00
-7154,12	547,00
-7136,15	461,00
-7118,20	542,00
-7100,29	673,00
-7082,41	611,00
-7064,57	527,00
-7046,76	546,00
-7028,98	472,00
-7011,24	587,00
-6993,53	428,00
-6975,85	603,00
-6958,20	546,00
-6940,59	519,00
-6923,01	418,00
-6905,46	591,00
-6887,94	408,00
-6870,46	717,00
-6853,01	547,00
-6835,59	548,00
-6818,21	367,00
-6800,85	553,00
-6783,53	448,00
-6766,24	468,00
-6748,98	471,00
-6731,76	441,00
-6714,56	462,00
-6697,40	339,00
-6680,26	417,00
-6663,16	420,00
-6646,09	569,00
-6629,05	546,00
-6612,05	434,00
-6595,07	403,00
-6578,13	461,00
-6561,21	444,00
-6544,33	474,00
-6527,47	349,00
-6510,65	475,00
-6493,86	317,00
-6477,10	312,00
-6460,36	527,00
-6443,66	329,00
-6426,99	477,00
-6410,35	408,00
-6393,74	485,00
-6377,16	378,00
-6360,61	433,00
-6344,09	273,00
-6327,59	458,00
-6311,13	524,00
-6294,70	508,00
-6278,29	455,00
-6261,92	444,00
-6245,58	503,00
-6229,26	447,00
-6212,97	492,00
-6196,72	409,00
-6180,49	510,00
-6164,29	438,00
-6148,12	564,00
-6131,98	534,00
-6115,86	453,00
-6099,78	475,00
-6083,72	396,00
-6067,69	446,00
-6051,69	523,00
-6035,72	522,00
-6019,78	460,00
-6003,87	556,00
-5987,98	399,00
-5972,12	448,00
-5956,29	427,00
-5940,49	425,00
-5924,71	553,00
-5908,96	465,00
-5893,24	593,00
-5877,55	482,00
-5861,89	525,00
-5846,25	292,00
-5830,64	455,00
-5815,05	403,00
-5799,50	382,00
-5783,97	456,00
-5768,47	399,00
-5752,99	629,00
-5737,55	376,00
-5722,12	402,00
-5706,73	388,00
-5691,36	607,00
-5676,02	441,00
-5660,71	501,00
-5645,42	446,00
-5630,16	523,00
-5614,92	429,00
-5599,71	408,00
-5584,53	387,00
-5569,37	443,00
-5554,24	1487,00
-5539,14	462,00
-5524,06	491,00
-5509,01	558,00
-5493,98	384,00
-5478,98	484,00
-5464,00	419,00
-5449,05	396,00
-5434,13	471,00
-5419,23	519,00
-5404,36	482,00
-5389,51	423,00
-5374,69	473,00
-5359,89	509,00
-5345,12	493,00
-5330,37	560,00
-5315,65	501,00
-5300,95	510,00
-5286,28	520,00
-5271,63	378,00
-5257,01	417,00
-5242,41	484,00
-5227,84	426,00
-5213,29	469,00
-5198,76	464,00
-5184,26	556,00
-5169,79	454,00
-5155,33	428,00
-5140,91	436,00
-5126,51	411,00
-5112,13	442,00
-5097,77	540,00
-5083,44	520,00
-5069,13	532,00
-5054,85	522,00
-5040,59	511,00
-5026,36	433,00
-5012,15	571,00
-4997,96	468,00
-4983,80	566,00
-4969,66	513,00
-4955,54	489,00
-4941,44	546,00
-4927,37	443,00
-4913,33	498,00
-4899,30	421,00
-4885,30	431,00
-4871,33	422,00
-4857,37	493,00
-4843,44	473,00
-4829,53	587,00
-4815,65	555,00
-4801,79	353,00
-4787,95	473,00
-4774,13	518,00
-4760,34	500,00
-4746,56	614,00
-4732,82	557,00
-4719,09	492,00
-4705,38	547,00
-4691,70	462,00
-4678,04	619,00
-4664,41	541,00
-4650,79	722,00
-4637,20	519,00
-4623,63	501,00
-4610,08	650,00
-4596,56	502,00
-4583,05	398,00
-4569,57	469,00
-4556,11	588,00
-4542,67	525,00
-4529,25	515,00
-4515,86	546,00
-4502,49	558,00
-4489,13	527,00
-4475,80	606,00
-4462,49	454,00
-4449,21	656,00
-4435,94	540,00
-4422,70	419,00
-4409,47	430,00
-4396,27	610,00
-4383,09	429,00
-4369,93	597,00
-4356,79	491,00
-4343,67	645,00
-4330,58	615,00
-4317,50	497,00
-4304,45	481,00
-4291,41	612,00
-4278,40	542,00
-4265,41	548,00
-4252,44	547,00
-4239,49	449,00
-4226,55	472,00
-4213,65	562,00
-4200,76	710,00
-4187,89	650,00
-4175,04	558,00
-4162,21	500,00
-4149,40	593,00
-4136,61	539,00
-4123,85	598,00
-4111,10	635,00
-4098,37	585,00
-4085,66	565,00
-4072,98	583,00
-4060,31	485,00
-4047,66	636,00
-4035,04	706,00
-4022,43	586,00
-4009,84	629,00
-3997,27	578,00
-3984,72	615,00
-3972,19	615,00
-3959,69	566,00
-3947,20	547,00
-3934,73	577,00
-3922,27	597,00
-3909,84	598,00
-3897,43	663,00
-3885,04	640,00
-3872,67	589,00
-3860,31	550,00
-3847,98	663,00
-3835,66	587,00
-3823,36	625,00
-3811,09	589,00
-3798,83	613,00
-3786,59	654,00
-3774,37	696,00
-3762,17	539,00
-3749,98	606,00
-3737,82	630,00
-3725,67	734,00
-3713,55	577,00
-3701,44	650,00
-3689,35	581,00
-3677,28	702,00
-3665,22	532,00
-3653,19	603,00
-3641,17	628,00
-3629,18	609,00
-3617,20	583,00
-3605,24	627,00
-3593,30	631,00
-3581,37	679,00
-3569,47	641,00
-3557,58	638,00
-3545,71	715,00
-3533,86	666,00
-3522,02	614,00
-3510,21	642,00
-3498,41	655,00
-3486,63	571,00
-3474,87	606,00
-3463,12	636,00
-3451,40	626,00
-3439,69	693,00
-3428,00	568,00
-3416,33	595,00
-3404,67	532,00
-3393,03	602,00
-3381,41	630,00
-3369,81	678,00
-3358,22	686,00
-3346,66	706,00
-3335,10	647,00
-3323,57	591,00
-3312,06	681,00
-3300,56	638,00
-3289,08	626,00
-3277,61	554,00
-3266,16	656,00
-3254,73	573,00
-3243,32	581,00
-3231,92	516,00
-3220,55	688,00
-3209,18	844,00
-3197,84	611,00
-3186,51	571,00
-3175,20	579,00
-3163,90	524,00
-3152,63	754,00
-3141,36	494,00
-3130,12	609,00
-3118,89	660,00
-3107,68	530,00
-3096,49	654,00
-3085,31	638,00
-3074,15	658,00
-3063,00	630,00
-3051,87	684,00
-3040,76	582,00
-3029,67	790,00
-3018,59	772,00
-3007,52	756,00
-2996,48	566,00
-2985,44	629,00
-2974,43	652,00
-2963,43	563,00
-2952,45	720,00
-2941,48	697,00
-2930,53	652,00
-2919,60	555,00
-2908,68	571,00
-2897,78	644,00
-2886,89	631,00
-2876,02	642,00
-2865,17	560,00
-2854,33	705,00
-2843,50	593,00
-2832,70	630,00
-2821,90	621,00
-2811,13	661,00
-2800,37	631,00
-2789,62	457,00
-2778,89	633,00
-2768,18	676,00
-2757,48	630,00
-2746,80	712,00
-2736,13	608,00
-2725,48	698,00
-2714,84	542,00
-2704,22	725,00
-2693,61	526,00
-2683,02	565,00
-2672,45	594,00
-2661,89	704,00
-2651,34	670,00
-2640,81	637,00
-2630,30	705,00
-2619,80	621,00
-2609,31	607,00
-2598,84	532,00
-2588,39	665,00
-2577,95	572,00
-2567,52	581,00
-2557,11	542,00
-2546,71	620,00
-2536,33	739,00
-2525,97	637,00
-2515,62	689,00
-2505,28	640,00
-2494,96	632,00
-2484,65	658,00
-2474,36	832,00
-2464,08	577,00
-2453,82	710,00
-2443,57	579,00
-2433,33	572,00
-2423,11	657,00
-2412,91	669,00
-2402,72	603,00
-2392,54	583,00
-2382,38	598,00
-2372,23	641,00
-2362,09	1396,00
-2351,97	562,00
-2341,87	585,00
-2331,78	635,00
-2321,70	672,00
-2311,64	622,00
-2301,59	520,00
-2291,55	549,00
-2281,53	695,00
-2271,53	535,00
-2261,53	704,00
-2251,55	592,00
-2241,59	583,00
-2231,64	651,00
-2221,70	607,00
-2211,78	628,00
-2201,87	620,00
-2191,97	639,00
-2182,09	578,00
-2172,22	654,00
-2162,37	567,00
-2152,53	525,00
-2142,70	605,00
-2132,89	656,00
-2123,09	596,00
-2113,30	645,00
-2103,53	620,00
-2093,77	556,00
-2084,02	656,00
-2074,29	631,00
-2064,57	579,00
-2054,86	701,00
-2045,17	758,00
-2035,49	625,00
-2025,82	545,00
-2016,17	605,00
-2006,53	545,00
-1996,91	614,00
-1987,29	542,00
-1977,69	563,00
-1968,11	536,00
-1958,53	583,00
-1948,97	584,00
-1939,42	616,00
-1929,89	609,00
-1920,37	624,00
-1910,86	662,00
-1901,36	628,00
-1891,88	633,00
-1882,41	610,00
-1872,95	668,00
-1863,51	678,00
-1854,08	658,00
-1844,66	660,00
-1835,26	675,00
-1825,86	672,00
-1816,48	656,00
-1807,11	653,00
-1797,76	700,00
-1788,42	718,00
-1779,09	664,00
-1769,77	644,00
-1760,47	775,00
-1751,17	558,00
-1741,89	519,00
-1732,63	624,00
-1723,37	768,00
-1714,13	684,00
-1704,90	589,00
-1695,68	724,00
-1686,48	553,00
-1677,29	593,00
-1668,11	826,00
-1658,94	617,00
-1649,78	674,00
-1640,64	618,00
-1631,51	573,00
-1622,39	708,00
-1613,28	666,00
-1604,19	737,00
-1595,10	603,00
-1586,03	600,00
-1576,97	660,00
-1567,93	611,00
-1558,89	556,00
-1549,87	725,00
-1540,86	558,00
-1531,86	585,00
-1522,87	542,00
-1513,90	646,00
-1504,93	654,00
-1495,98	716,00
-1487,04	778,00
-1478,12	624,00
-1469,20	609,00
-1460,30	569,00
-1451,40	766,00
-1442,52	647,00
-1433,65	795,00
-1424,80	614,00
-1415,95	604,00
-1407,12	741,00
-1398,30	691,00
-1389,48	681,00
-1380,69	622,00
-1371,90	556,00
-1363,12	722,00
-1354,36	693,00
-1345,60	585,00
-1336,86	568,00
-1328,13	695,00
-1319,41	595,00
-1310,70	634,00
-1302,01	584,00
-1293,32	550,00
-1284,65	659,00
-1275,99	637,00
-1267,33	741,00
-1258,69	636,00
-1250,06	649,00
-1241,45	607,00
-1232,84	792,00
-1224,25	658,00
-1215,66	649,00
-1207,09	606,00
-1198,53	675,00
-1189,97	684,00
-1181,43	588,00
-1172,91	628,00
-1164,39	658,00
-1155,88	515,00
-1147,38	500,00
-1138,90	665,00
-1130,43	606,00
-1121,96	600,00
-1113,51	619,00
-1105,07	662,00
-1096,64	666,00
-1088,22	628,00
-1079,81	640,00
-1071,41	630,00
-1063,02	594,00
-1054,65	741,00
-1046,28	627,00
-1037,92	661,00
-1029,58	573,00
-1021,24	689,00
-1012,92	845,00
-1004,61	632,00
-996,30	776,00
-988,01	601,00
-979,73	684,00
-971,46	680,00
-963,20	659,00
-954,95	523,00
-946,71	689,00
-938,48	641,00
-930,26	667,00
-922,06	709,00
-913,86	540,00
-905,67	543,00
-897,49	739,00
-889,33	426,00
-881,17	799,00
-873,02	651,00
-864,89	507,00
-856,76	580,00
-848,65	652,00
-840,54	645,00
-832,45	584,00
-824,36	574,00
-816,29	656,00
-808,22	717,00
-800,17	605,00
-792,12	680,00
-784,09	674,00
-776,06	586,00
-768,05	674,00
-760,04	634,00
-752,05	638,00
-744,07	697,00
-736,09	683,00
-728,13	530,00
-720,17	618,00
-712,23	594,00
-704,29	510,00
-696,37	618,00
-688,45	749,00
-680,55	599,00
-672,65	589,00
-664,77	610,00
-656,89	680,00
-649,03	546,00
-641,17	739,00
-633,32	743,00
-625,49	741,00
-617,66	650,00
-609,84	713,00
-602,03	551,00
-594,23	655,00
-586,45	658,00
-578,67	669,00
-570,90	739,00
-563,14	580,00
-555,39	691,00
-547,65	672,00
-539,91	616,00
-532,19	706,00
-524,48	655,00
-516,78	671,00
-509,08	717,00
-501,40	638,00
-493,72	661,00
-486,06	620,00
-478,40	751,00
-470,76	634,00
-463,12	688,00
-455,49	628,00
-447,87	688,00
-440,26	644,00
-432,66	617,00
-425,07	629,00
-417,49	671,00
-409,92	538,00
-402,35	606,00
-394,80	553,00
-387,25	682,00
-379,72	736,00
-372,19	682,00
-364,67	743,00
-357,17	659,00
-349,67	710,00
-342,18	638,00
-334,69	773,00
-327,22	642,00
-319,76	718,00
-312,30	611,00
-304,86	696,00
-297,42	637,00
-290,00	694,00
-282,58	736,00
-275,17	750,00
-267,77	884,00
-260,37	718,00
-252,99	737,00
-245,62	839,00
-238,25	790,00
-230,90	756,00
-223,55	822,00
-216,21	803,00
-208,88	1032,00
-201,56	875,00
-194,25	910,00
-186,94	1022,00
-179,65	1019,00
-172,36	1051,00
-165,08	1138,00
-157,81	1156,00
-150,55	1252,00
-143,30	1277,00
-136,06	1326,00
-128,82	1356,00
-121,60	1514,00
-114,38	1619,00
-107,17	1827,00
-99,97	2018,00
-92,78	2084,00
-85,60	2242,00
-78,42	2626,00
-71,25	2955,00
-64,10	3237,00
-56,95	3679,00
-49,81	4329,00
-42,67	5279,00
-35,55	6358,00
-28,43	8357,00
-21,33	13447,00
-14,23	42058,00
-7,14	57498,00
-0,05	57284,00
7,02	57012,00
14,09	57319,00
21,14	35037,00
28,19	15872,00
35,23	10371,00
42,27	8119,00
49,29	6510,00
56,31	5570,00
63,32	4880,00
70,32	4100,00
77,31	3613,00
84,29	3100,00
91,27	3006,00
98,23	2655,00
105,19	2614,00
112,14	2856,00
119,09	4190,00
126,02	6487,00
132,95	7716,00
139,87	7881,00
146,78	8153,00
153,68	8025,00
160,58	8016,00
167,46	7810,00
174,34	7941,00
181,21	7849,00
188,08	7817,00
194,93	7714,00
201,78	7871,00
208,62	7921,00
215,45	8013,00
222,27	7925,00
229,09	8066,00
235,90	7888,00
242,70	7753,00
249,49	7848,00
256,27	7819,00
263,05	7808,00
269,82	7808,00
276,58	7795,00
283,33	7916,00
290,08	7678,00
296,82	7669,00
303,55	7512,00
310,27	7343,00
316,98	7507,00
323,69	7510,00
330,39	7424,00
337,08	7411,00
343,76	7534,00
350,44	7506,00
357,11	7421,00
363,77	7414,00
370,42	7474,00
377,07	7429,00
383,71	7341,00
390,34	7404,00
396,96	7419,00
403,58	7429,00
410,19	7656,00
416,79	7560,00
423,38	7711,00
429,97	7390,00
436,55	7269,00
443,12	7143,00
449,68	7102,00
456,24	7035,00
462,79	7092,00
469,33	7250,00
475,86	6975,00
482,39	6965,00
488,91	7111,00
495,42	6979,00
501,93	6908,00
508,42	6867,00
514,91	6835,00
521,40	6853,00
527,87	6769,00
534,34	6642,00
540,80	6759,00
547,25	6737,00
553,70	6819,00
560,14	6782,00
566,57	6703,00
573,00	6744,00
579,41	6834,00
585,83	6828,00
592,23	6755,00
598,62	6710,00
605,01	6636,00
611,40	6727,00
617,77	6715,00
624,14	6570,00
630,50	6635,00
636,85	6631,00
643,20	6563,00
649,54	6539,00
655,87	6451,00
662,20	6360,00
668,52	6415,00
674,83	6428,00
681,13	6254,00
687,43	6359,00
693,72	6291,00
700,00	6343,00
706,28	6321,00
712,55	6243,00
718,81	6346,00
725,07	6314,00
731,32	6400,00
737,56	6210,00
743,79	6200,00
750,02	6319,00
756,24	6223,00
762,46	6146,00
768,67	6335,00
774,87	6121,00
781,06	6260,00
787,25	6326,00
793,43	6224,00
799,60	6134,00
805,77	6243,00
811,93	6137,00
818,08	6176,00
824,23	6201,00
830,37	6300,00
836,50	6077,00
842,63	6185,00
848,75	6064,00
854,87	5985,00
860,97	6150,00
867,07	5891,00
873,17	6070,00
879,25	6029,00
885,33	5965,00
891,41	5957,00
897,47	6042,00
903,53	5896,00
909,59	5948,00
915,63	5760,00
921,67	5769,00
927,71	5816,00
933,74	5793,00
939,76	5618,00
945,77	5694,00
951,78	5797,00
957,78	5603,00
963,78	5737,00
969,77	5746,00
975,75	5715,00
981,72	5637,00
987,69	6715,00
993,66	5939,00
999,61	5719,00
1005,56	5641,00
1011,51	5699,00
1017,44	5752,00
1023,37	5675,00
1029,30	5675,00
1035,22	5778,00
1041,13	5709,00
1047,03	5826,00
1052,93	5850,00
1058,83	6172,00
1064,71	6259,00
1070,59	6175,00
1076,47	5912,00
1082,33	5826,00
1088,20	5765,00
1094,05	5648,00
1099,90	5487,00
1105,74	5549,00
1111,58	5538,00
1117,41	5556,00
1123,23	5763,00
1129,05	6025,00
1134,86	6043,00
1140,67	5722,00
1146,47	5626,00
1152,26	5585,00
1158,05	5519,00
1163,83	5567,00
1169,60	5554,00
1175,37	5558,00
1181,13	5468,00
1186,89	5455,00
1192,64	5541,00
1198,38	5602,00
1204,12	5348,00
1209,85	5451,00
1215,58	5411,00
1221,30	5447,00
1227,02	5584,00
1232,72	5462,00
1238,43	5478,00
1244,12	5504,00
1249,81	5446,00
1255,50	5592,00
1261,17	5550,00
1266,85	5458,00
1272,51	5480,00
1278,17	5632,00
1283,83	5624,00
1289,47	5868,00
1295,12	6402,00
1300,75	6277,00
1306,38	5925,00
1312,01	5717,00
1317,63	5743,00
1323,24	5517,00
1328,85	5588,00
1334,45	5633,00
1340,04	5517,00
1345,63	5523,00
1351,22	5633,00
1356,80	5570,00
1362,37	5637,00
1367,93	5626,00
1373,49	5655,00
1379,05	5629,00
1384,60	5632,00
1390,14	5585,00
1395,68	5570,00
1401,21	5628,00
1406,74	5685,00
1412,26	5709,00
1417,77	5874,00
1423,28	5824,00
1428,78	5971,00
1434,28	6281,00
1439,77	6396,00
1445,26	6417,00
1450,74	6408,00
1456,22	6209,00
1461,68	6110,00
1467,15	6055,00
1472,61	5745,00
1478,06	5750,00
1483,51	5539,00
1488,95	5282,00
1494,38	5401,00
1499,81	5224,00
1505,24	5338,00
1510,65	5161,00
1516,07	5302,00
1521,48	5246,00
1526,88	4969,00
1532,27	5233,00
1537,67	5059,00
1543,05	5103,00
1548,43	5092,00
1553,81	5042,00
1559,18	5022,00
1564,54	5005,00
1569,90	4956,00
1575,25	4939,00
1580,60	4892,00
1585,94	5006,00
1591,28	4928,00
1596,61	4967,00
1601,93	4942,00
1607,25	4981,00
1612,57	4882,00
1617,88	4836,00
1623,18	4906,00
1628,48	4845,00
1633,77	4753,00
1639,06	4848,00
1644,34	4736,00
1649,62	4663,00
1654,89	4710,00
1660,16	4655,00
1665,42	4905,00
1670,67	4718,00
1675,92	4605,00
1681,17	4500,00
1686,41	4683,00
1691,64	4567,00
1696,87	4481,00
1702,10	4608,00
1707,32	4490,00
1712,53	4423,00
1717,74	4475,00
1722,94	4505,00
1728,14	4373,00
1733,33	4349,00
1738,52	4323,00
1743,70	4416,00
1748,88	4353,00
1754,05	4268,00
1759,22	4182,00
1764,38	3474,00
1769,53	4239,00
1774,69	4252,00
1779,83	4121,00
1784,97	4264,00
1790,11	4051,00
1795,24	4017,00
1800,36	4067,00
1805,48	4040,00
1810,60	4119,00
1815,71	4028,00
1820,82	3997,00
1825,92	4120,00
1831,01	4029,00
1836,10	4031,00
1841,19	4138,00
1846,26	3914,00
1851,34	4047,00
1856,41	3967,00
1861,47	3968,00
1866,53	4111,00
1871,59	3956,00
1876,64	3977,00
1881,68	3867,00
1886,72	3942,00
1891,76	3843,00
1896,79	3764,00
1901,81	3711,00
1906,83	3764,00
1911,85	3697,00
1916,86	3783,00
1921,86	3638,00
1926,86	3535,00
1931,86	3632,00
1936,85	3476,00
1941,83	3478,00
1946,81	3508,00
1951,79	3471,00
1956,76	3542,00
1961,72	3276,00
1966,68	3563,00
1971,64	3458,00
1976,59	3471,00
1981,54	3419,00
1986,48	3431,00
1991,42	3318,00
1996,35	3600,00
2001,27	3425,00
2006,20	3376,00
2011,11	3249,00
2016,03	3274,00
2020,93	3226,00
2025,84	3285,00
2030,73	3289,00
2035,63	3187,00
2040,52	3320,00
2045,40	3319,00
2050,28	3231,00
2055,15	3087,00
2060,02	3118,00
2064,89	3249,00
2069,75	3206,00
2074,60	3130,00
2079,46	3153,00
2084,30	3052,00
2089,14	3036,00
2093,98	3205,00
2098,81	3098,00
2103,64	3177,00
2108,46	3226,00
2113,28	3194,00
2118,09	3193,00
2122,90	3153,00
2127,70	3042,00
2132,50	3060,00
2137,30	3045,00
2142,09	2925,00
2146,87	2970,00
2151,66	3126,00
2156,43	2916,00
2161,20	2932,00
2165,97	3013,00
2170,73	2938,00
2175,49	3021,00
2180,24	2980,00
2184,99	2967,00
2189,74	3042,00
2194,48	3015,00
2199,21	2883,00
2203,94	2869,00
2208,67	2780,00
2213,39	2705,00
2218,11	2829,00
2222,82	2773,00
2227,53	2833,00
2232,23	2755,00
2236,93	2780,00
2241,63	2699,00
2246,32	2877,00
2251,00	2697,00
2255,68	2730,00
2260,36	2627,00
2265,03	2751,00
2269,70	2753,00
2274,36	2743,00
2279,02	2718,00
2283,68	2646,00
2288,33	2638,00
2292,97	2648,00
2297,61	2625,00
2302,25	2619,00
2306,88	2555,00
2311,51	2592,00
2316,14	2531,00
2320,75	2503,00
2325,37	2490,00
2329,98	2571,00
2334,59	2544,00
2339,19	2451,00
2343,79	2383,00
2348,38	2507,00
2352,97	2309,00
2357,55	2444,00
2362,13	2371,00
2366,71	2383,00
2371,28	2475,00
2375,85	2305,00
2380,41	2485,00
2384,97	2296,00
2389,52	2365,00
2394,07	2331,00
2398,62	2346,00
2403,16	2375,00
2407,70	2132,00
2412,23	2242,00
2416,76	2329,00
2421,29	2365,00
2425,81	2397,00
2430,32	2380,00
2434,84	2218,00
2439,34	2190,00
2443,85	2301,00
2448,35	2187,00
2452,84	2185,00
2457,33	2227,00
2461,82	2086,00
2466,30	2157,00
2470,78	2171,00
2475,25	2103,00
2479,72	2199,00
2484,19	2092,00
2488,65	2186,00
2493,11	2006,00
2497,56	2230,00
2502,01	2065,00
2506,46	2118,00
2510,90	2048,00
2515,34	2039,00
2519,77	1999,00
2524,20	2036,00
2528,62	2021,00
2533,04	2044,00
2537,46	1978,00
2541,87	1984,00
2546,28	1974,00
2550,68	2032,00
2555,08	1995,00
2559,48	1953,00
2563,87	1863,00
2568,26	1880,00
2572,64	1890,00
2577,02	1845,00
2581,40	1745,00
2585,77	1908,00
2590,14	1834,00
2594,50	1755,00
2598,86	1802,00
2603,22	1743,00
2607,57	1754,00
2611,92	1842,00
2616,26	1903,00
2620,60	1870,00
2624,94	1724,00
2629,27	1727,00
2633,60	1669,00
2637,92	1870,00
2642,24	1845,00
2646,56	1709,00
2650,87	1563,00
2655,18	1827,00
2659,48	1716,00
2663,78	1709,00
2668,08	1679,00
2672,37	1704,00
2676,66	1638,00
2680,95	1645,00
2685,23	1786,00
2689,50	1667,00
2693,78	1718,00
2698,05	1605,00
2702,31	1670,00
2706,57	1730,00
2710,83	1829,00
2715,08	1844,00
2719,33	1775,00
2723,58	1732,00
2727,82	1814,00
2732,06	1752,00
2736,29	1774,00
2740,53	1649,00
2744,75	1689,00
2748,97	1676,00
2753,19	1647,00
2757,41	1660,00
2761,62	1719,00
2765,83	1723,00
2770,03	1556,00
2774,23	1678,00
2778,43	1602,00
2782,62	1676,00
2786,81	1665,00
2791,00	1618,00
2795,18	1642,00
2799,35	1719,00
2803,53	1628,00
2807,70	1658,00
2811,86	1619,00
2816,03	1789,00
2820,19	1654,00
2824,34	1702,00
2828,49	1779,00
2832,64	1895,00
2836,78	2043,00
2840,92	2114,00
2845,06	2404,00
2849,19	2612,00
2853,32	2705,00
2857,45	2534,00
2861,57	2544,00
2865,69	2574,00
2869,80	2553,00
2873,91	2543,00
2878,02	2630,00
2882,12	2794,00
2886,22	2716,00
2890,32	2559,00
2894,41	2559,00
2898,50	2432,00
2902,58	2381,00
2906,67	2319,00
2910,74	2229,00
2914,82	2116,00
2918,89	2158,00
2922,96	2020,00
2927,02	1840,00
2931,08	1802,00
2935,13	1749,00
2939,19	1719,00
2943,24	1665,00
2947,28	1785,00
2951,32	1549,00
2955,36	1539,00
2959,40	1642,00
2963,43	1476,00
2967,46	1512,00
2971,48	1357,00
2975,50	1373,00
2979,52	1417,00
2983,53	1294,00
2987,54	1247,00
2991,55	1347,00
2995,55	1275,00
2999,55	1233,00
3003,54	1254,00
3007,54	1260,00
3011,53	1168,00
3015,51	1201,00
3019,49	1208,00
3023,47	1089,00
3027,45	1188,00
3031,42	1157,00
3035,39	1104,00
3039,35	1161,00
3043,31	1206,00
3047,27	1103,00
3051,22	1144,00
3055,17	1014,00
3059,12	1021,00
3063,06	1073,00
3067,00	1081,00
3070,94	1040,00
3074,87	1155,00
3078,80	1043,00
3082,73	1071,00
3086,65	1001,00
3090,57	1055,00
3094,49	1067,00
3098,40	997,00
3102,31	1040,00
3106,22	988,00
3110,12	964,00
3114,02	929,00
3117,92	962,00
3121,81	984,00
3125,70	1004,00
3129,58	949,00
3133,47	885,00
3137,34	995,00
3141,22	1066,00
3145,09	1033,00
3148,96	993,00
3152,83	1030,00
3156,69	994,00
3160,55	1011,00
3164,40	983,00
3168,26	1025,00
3172,10	964,00
3175,95	884,00
3179,79	960,00
3183,63	968,00
3187,47	863,00
3191,30	992,00
3195,13	895,00
3198,95	857,00
3202,78	881,00
3206,60	905,00
3210,41	832,00
3214,23	830,00
3218,03	1013,00
3221,84	845,00
3225,64	840,00
3229,44	828,00
3233,24	943,00
3237,03	835,00
3240,82	818,00
3244,61	827,00
3248,39	880,00
3252,17	912,00
3255,95	835,00
3259,72	833,00
3263,49	911,00
3267,26	866,00
3271,03	869,00
3274,79	823,00
3278,54	871,00
3282,30	739,00
3286,05	873,00
3289,80	884,00
3293,54	858,00
3297,29	847,00
3301,02	729,00
3304,76	813,00
3308,49	783,00
3312,22	753,00
3315,95	757,00
3319,67	761,00
3323,39	867,00
3327,10	872,00
3330,82	867,00
3334,53	827,00
3338,24	815,00
3341,94	772,00
3345,64	832,00
3349,34	843,00
3353,03	879,00
3356,72	803,00
3360,41	832,00
3364,10	725,00
3367,78	779,00
3371,46	776,00
3375,13	736,00
3378,81	827,00
3382,48	739,00
3386,14	726,00
3389,81	804,00
3393,47	761,00
3397,12	818,00
3400,78	817,00
3404,43	733,00
3408,08	754,00
3411,72	677,00
3415,36	677,00
3419,00	779,00
3422,64	729,00
3426,27	743,00
3429,90	810,00
3433,53	636,00
3437,15	757,00
3440,77	634,00
3444,39	681,00
3448,00	789,00
3451,62	683,00
3455,22	656,00
3458,83	660,00
3462,43	688,00
3466,03	679,00
3469,63	648,00
3473,22	612,00
3476,81	645,00
3480,40	802,00
3483,99	656,00
3487,57	708,00
3491,15	650,00
3494,72	703,00
3498,29	727,00
3501,86	658,00
3505,43	728,00
3508,99	683,00
3512,56	512,00
3516,11	764,00
3519,67	666,00
3523,22	627,00
3526,77	636,00
3530,32	771,00
3533,86	686,00
3537,40	812,00
3540,94	724,00
3544,47	639,00
3548,00	652,00
3551,53	695,00
3555,06	627,00
3558,58	649,00
3562,10	683,00
3565,62	537,00
3569,13	641,00
3572,64	808,00
3576,15	535,00
3579,66	627,00
3583,16	697,00
3586,66	708,00
3590,16	674,00
3593,65	598,00
3597,14	639,00
3600,63	563,00
3604,11	611,00
3607,60	601,00
3611,08	623,00
3614,55	628,00
3618,03	549,00
3621,50	520,00
3624,97	515,00
3628,43	602,00
3631,90	527,00
3635,36	516,00
3638,81	608,00
3642,27	557,00
3645,72	645,00
3649,17	594,00
3652,61	576,00
3656,06	544,00
3659,50	656,00
3662,93	630,00
3666,37	609,00
3669,80	707,00
3673,23	630,00
3676,65	601,00
3680,08	698,00
3683,50	511,00
3686,92	600,00
3690,33	656,00
3693,74	563,00
3697,15	509,00
3700,56	629,00
3703,96	628,00
3707,36	516,00
3710,76	515,00
3714,16	520,00
3717,55	570,00
3720,94	474,00
3724,33	588,00
3727,71	619,00
3731,10	572,00
3734,48	569,00
3737,85	501,00
3741,23	543,00
3744,60	499,00
3747,97	451,00
3751,33	555,00
3754,69	524,00
3758,05	629,00
3761,41	449,00
3764,77	477,00
3768,12	482,00
3771,47	382,00
3774,82	479,00
3778,16	-5,00
3781,50	10,00
3784,84	9,00
3788,18	8,00
>>>>>End Processed Spectral Data<<<<<
