SpectraSuite Data File
++++++++++++++++++++++++++++++++++++
Date: Mon Jan 05 16:26:07 ICT 2026
User: Administrator
Dark Spectrum Present: Yes
Reference Spectrum Present: No
Number of Sampled Component Spectra: 1
Spectrometers: MAYP113682
Integration Time (usec): 3000000 (MAYP113682)
Spectra Averaged: 1 (MAYP113682)
Boxcar Smoothing: 0 (MAYP113682)
Correct for Electrical Dark: No (MAYP113682)
Strobe/Lamp Enabled: No (MAYP113682)
Correct for Detector Non-linearity: No (MAYP113682)
Correct for Stray Light: No (MAYP113682)
Number of Pixels in Processed Spectrum: 2068
>>>>>Begin Processed Spectral Data<<<<<
-37534,58	15,00
-37414,56	4,00
-37295,11	6,00
-37176,24	-1,00
-37057,95	333,00
-36940,22	343,00
-36823,05	409,00
-36706,45	360,00
-36590,40	462,00
-36474,90	443,00
-36359,95	445,00
-36245,55	511,00
-36131,68	396,00
-36018,35	462,00
-35905,55	372,00
-35793,29	534,00
-35681,54	435,00
-35570,32	466,00
-35459,62	430,00
-35349,43	450,00
-35239,75	452,00
-35130,58	451,00
-35021,91	433,00
-34913,74	455,00
-34806,07	506,00
-34698,89	493,00
-34592,20	434,00
-34486,00	391,00
-34380,28	466,00
-34275,04	385,00
-34170,27	348,00
-34065,98	502,00
-33962,16	516,00
-33858,81	469,00
-33755,92	449,00
-33653,49	509,00
-33551,52	507,00
-33450,01	412,00
-33348,94	493,00
-33248,33	428,00
-33148,16	475,00
-33048,43	402,00
-32949,14	534,00
-32850,29	517,00
-32751,87	423,00
-32653,89	515,00
-32556,33	477,00
-32459,20	356,00
-32362,49	482,00
-32266,19	470,00
-32170,32	418,00
-32074,86	529,00
-31979,82	537,00
-31885,18	509,00
-31790,95	508,00
-31697,12	516,00
-31603,69	448,00
-31510,67	557,00
-31418,04	458,00
-31325,80	479,00
-31233,95	447,00
-31142,49	487,00
-31051,42	510,00
-30960,73	643,00
-30870,43	605,00
-30780,50	539,00
-30690,95	559,00
-30601,77	635,00
-30512,97	515,00
-30424,53	510,00
-30336,46	448,00
-30248,76	389,00
-30161,42	607,00
-30074,44	451,00
-29987,81	444,00
-29901,55	538,00
-29815,63	473,00
-29730,07	473,00
-29644,86	497,00
-29560,00	469,00
-29475,48	521,00
-29391,30	534,00
-29307,47	458,00
-29223,97	471,00
-29140,81	480,00
-29057,99	560,00
-28975,50	428,00
-28893,34	634,00
-28811,51	418,00
-28730,00	500,00
-28648,82	551,00
-28567,97	441,00
-28487,43	470,00
-28407,21	450,00
-28327,32	374,00
-28247,73	612,00
-28168,46	443,00
-28089,50	462,00
-28010,85	383,00
-27932,51	375,00
-27854,48	446,00
-27776,75	372,00
-27699,32	471,00
-27622,19	460,00
-27545,37	548,00
-27468,84	535,00
-27392,60	492,00
-27316,66	448,00
-27241,01	485,00
-27165,66	426,00
-27090,59	367,00
-27015,81	491,00
-26941,31	411,00
-26867,10	479,00
-26793,17	587,00
-26719,52	547,00
-26646,15	409,00
-26573,06	440,00
-26500,24	426,00
-26427,70	517,00
-26355,43	387,00
-26283,43	431,00
-26211,71	407,00
-26140,25	486,00
-26069,06	512,00
-25998,13	380,00
-25927,46	479,00
-25857,06	487,00
-25786,92	482,00
-25717,04	410,00
-25647,42	494,00
-25578,05	485,00
-25508,94	385,00
-25440,09	517,00
-25371,48	564,00
-25303,13	505,00
-25235,02	405,00
-25167,17	499,00
-25099,56	416,00
-25032,19	496,00
-24965,07	461,00
-24898,20	429,00
-24831,56	376,00
-24765,17	515,00
-24699,01	453,00
-24633,10	443,00
-24567,41	512,00
-24501,97	416,00
-24436,75	411,00
-24371,77	465,00
-24307,03	371,00
-24242,51	505,00
-24178,22	492,00
-24114,16	448,00
-24050,32	463,00
-23986,71	469,00
-23923,32	477,00
-23860,16	446,00
-23797,22	447,00
-23734,50	495,00
-23672,00	462,00
-23609,71	483,00
-23547,65	399,00
-23485,80	510,00
-23424,16	377,00
-23362,74	519,00
-23301,53	535,00
-23240,54	356,00
-23179,75	409,00
-23119,17	402,00
-23058,80	422,00
-22998,64	544,00
-22938,68	443,00
-22878,93	435,00
-22819,39	411,00
-22760,04	398,00
-22700,90	441,00
-22641,96	391,00
-22583,22	511,00
-22524,68	480,00
-22466,33	470,00
-22408,19	547,00
-22350,23	367,00
-22292,48	445,00
-22234,92	444,00
-22177,55	534,00
-22120,37	484,00
-22063,38	430,00
-22006,58	472,00
-21949,98	404,00
-21893,56	355,00
-21837,33	467,00
-21781,28	470,00
-21725,42	409,00
-21669,74	563,00
-21614,25	439,00
-21558,94	410,00
-21503,81	540,00
-21448,86	538,00
-21394,10	414,00
-21339,51	455,00
-21285,10	413,00
-21230,86	407,00
-21176,81	473,00
-21122,93	445,00
-21069,22	423,00
-21015,69	413,00
-20962,33	455,00
-20909,14	434,00
-20856,13	489,00
-20803,28	493,00
-20750,61	412,00
-20698,10	327,00
-20645,76	414,00
-20593,59	570,00
-20541,59	511,00
-20489,75	543,00
-20438,07	324,00
-20386,56	452,00
-20335,22	396,00
-20284,03	430,00
-20233,01	383,00
-20182,15	410,00
-20131,45	456,00
-20080,91	355,00
-20030,52	510,00
-19980,30	461,00
-19930,23	397,00
-19880,32	441,00
-19830,56	385,00
-19780,96	475,00
-19731,52	452,00
-19682,23	386,00
-19633,09	483,00
-19584,10	355,00
-19535,26	478,00
-19486,58	546,00
-19438,04	420,00
-19389,66	537,00
-19341,42	419,00
-19293,33	417,00
-19245,39	574,00
-19197,60	508,00
-19149,95	458,00
-19102,45	540,00
-19055,09	318,00
-19007,87	442,00
-18960,80	520,00
-18913,87	393,00
-18867,09	408,00
-18820,44	477,00
-18773,94	416,00
-18727,57	498,00
-18681,35	380,00
-18635,26	471,00
-18589,31	440,00
-18543,50	438,00
-18497,83	398,00
-18452,29	514,00
-18406,89	298,00
-18361,63	520,00
-18316,50	482,00
-18271,50	509,00
-18226,63	490,00
-18181,90	433,00
-18137,30	455,00
-18092,84	448,00
-18048,50	478,00
-18004,29	437,00
-17960,22	427,00
-17916,27	455,00
-17872,45	506,00
-17828,76	569,00
-17785,20	331,00
-17741,77	488,00
-17698,46	471,00
-17655,28	415,00
-17612,22	519,00
-17569,29	406,00
-17526,48	496,00
-17483,79	544,00
-17441,23	372,00
-17398,79	494,00
-17356,48	401,00
-17314,28	554,00
-17272,21	465,00
-17230,26	430,00
-17188,42	507,00
-17146,71	458,00
-17105,12	405,00
-17063,64	468,00
-17022,28	385,00
-16981,04	435,00
-16939,92	494,00
-16898,91	517,00
-16858,02	398,00
-16817,25	397,00
-16776,59	464,00
-16736,04	459,00
-16695,61	487,00
-16655,29	422,00
-16615,09	481,00
-16574,99	421,00
-16535,01	477,00
-16495,15	503,00
-16455,39	510,00
-16415,74	353,00
-16376,21	411,00
-16336,78	431,00
-16297,46	400,00
-16258,26	428,00
-16219,16	424,00
-16180,17	503,00
-16141,28	545,00
-16102,51	386,00
-16063,84	453,00
-16025,27	437,00
-15986,82	405,00
-15948,46	484,00
-15910,22	454,00
-15872,07	403,00
-15834,04	399,00
-15796,10	442,00
-15758,27	520,00
-15720,54	484,00
-15682,91	466,00
-15645,39	579,00
-15607,97	468,00
-15570,64	369,00
-15533,42	476,00
-15496,30	443,00
-15459,28	443,00
-15422,36	412,00
-15385,54	428,00
-15348,82	468,00
-15312,19	546,00
-15275,66	434,00
-15239,23	525,00
-15202,90	354,00
-15166,67	520,00
-15130,53	497,00
-15094,48	460,00
-15058,54	398,00
-15022,68	426,00
-14986,93	393,00
-14951,26	457,00
-14915,69	504,00
-14880,22	403,00
-14844,84	472,00
-14809,55	513,00
-14774,35	505,00
-14739,25	366,00
-14704,24	487,00
-14669,32	420,00
-14634,49	484,00
-14599,75	478,00
-14565,10	445,00
-14530,55	495,00
-14496,08	455,00
-14461,70	435,00
-14427,41	504,00
-14393,21	422,00
-14359,10	484,00
-14325,07	507,00
-14291,14	387,00
-14257,29	498,00
-14223,52	481,00
-14189,85	488,00
-14156,26	445,00
-14122,76	379,00
-14089,34	392,00
-14056,01	508,00
-14022,76	409,00
-13989,60	460,00
-13956,52	540,00
-13923,53	474,00
-13890,62	438,00
-13857,79	399,00
-13825,05	373,00
-13792,39	369,00
-13759,81	452,00
-13727,31	438,00
-13694,90	492,00
-13662,57	502,00
-13630,31	488,00
-13598,14	419,00
-13566,05	364,00
-13534,05	415,00
-13502,12	448,00
-13470,27	475,00
-13438,50	502,00
-13406,80	395,00
-13375,19	520,00
-13343,66	450,00
-13312,20	429,00
-13280,83	456,00
-13249,53	486,00
-13218,30	399,00
-13187,16	375,00
-13156,09	620,00
-13125,10	428,00
-13094,18	525,00
-13063,34	497,00
-13032,58	429,00
-13001,89	512,00
-12971,28	469,00
-12940,74	464,00
-12910,27	455,00
-12879,88	524,00
-12849,57	489,00
-12819,33	464,00
-12789,16	523,00
-12759,06	431,00
-12729,04	364,00
-12699,09	417,00
-12669,21	416,00
-12639,41	491,00
-12609,68	361,00
-12580,02	459,00
-12550,43	442,00
-12520,91	390,00
-12491,46	501,00
-12462,08	385,00
-12432,77	467,00
-12403,54	461,00
-12374,37	388,00
-12345,27	494,00
-12316,24	485,00
-12287,29	432,00
-12258,40	394,00
-12229,57	477,00
-12200,82	411,00
-12172,14	493,00
-12143,52	377,00
-12114,97	434,00
-12086,49	454,00
-12058,07	467,00
-12029,73	457,00
-12001,44	568,00
-11973,23	474,00
-11945,08	454,00
-11917,00	420,00
-11888,98	439,00
-11861,03	437,00
-11833,15	459,00
-11805,32	471,00
-11777,57	524,00
-11749,88	485,00
-11722,25	465,00
-11694,69	438,00
-11667,19	464,00
-11639,75	534,00
-11612,38	479,00
-11585,07	415,00
-11557,83	446,00
-11530,65	601,00
-11503,53	417,00
-11476,47	508,00
-11449,48	517,00
-11422,54	546,00
-11395,67	457,00
-11368,86	486,00
-11342,11	411,00
-11315,43	443,00
-11288,80	456,00
-11262,23	492,00
-11235,73	384,00
-11209,28	650,00
-11182,90	450,00
-11156,57	398,00
-11130,31	614,00
-11104,10	486,00
-11077,96	436,00
-11051,87	408,00
-11025,84	430,00
-10999,87	416,00
-10973,96	437,00
-10948,11	419,00
-10922,31	563,00
-10896,58	432,00
-10870,90	447,00
-10845,28	485,00
-10819,71	431,00
-10794,20	487,00
-10768,75	501,00
-10743,36	481,00
-10718,02	436,00
-10692,74	471,00
-10667,52	456,00
-10642,35	413,00
-10617,24	547,00
-10592,18	502,00
-10567,18	471,00
-10542,23	491,00
-10517,34	443,00
-10492,51	473,00
-10467,72	433,00
-10443,00	451,00
-10418,32	498,00
-10393,70	518,00
-10369,14	450,00
-10344,63	318,00
-10320,17	510,00
-10295,77	411,00
-10271,42	424,00
-10247,12	526,00
-10222,88	527,00
-10198,68	434,00
-10174,54	423,00
-10150,46	562,00
-10126,42	604,00
-10102,44	378,00
-10078,51	507,00
-10054,63	466,00
-10030,80	507,00
-10007,03	532,00
-9983,30	428,00
-9959,63	487,00
-9936,01	561,00
-9912,44	469,00
-9888,92	484,00
-9865,44	407,00
-9842,02	495,00
-9818,65	524,00
-9795,33	391,00
-9772,06	473,00
-9748,84	515,00
-9725,67	514,00
-9702,55	453,00
-9679,47	513,00
-9656,45	533,00
-9633,47	449,00
-9610,55	500,00
-9587,67	532,00
-9564,84	700,00
-9542,06	584,00
-9519,32	640,00
-9496,64	649,00
-9474,00	606,00
-9451,41	594,00
-9428,87	510,00
-9406,37	571,00
-9383,92	447,00
-9361,52	403,00
-9339,17	501,00
-9316,86	603,00
-9294,60	732,00
-9272,38	679,00
-9250,21	824,00
-9228,09	816,00
-9206,01	828,00
-9183,98	717,00
-9162,00	554,00
-9140,06	728,00
-9118,16	505,00
-9096,31	685,00
-9074,51	699,00
-9052,75	756,00
-9031,04	769,00
-9009,37	586,00
-8987,74	606,00
-8966,16	580,00
-8944,63	529,00
-8923,14	606,00
-8901,69	497,00
-8880,29	511,00
-8858,93	774,00
-8837,61	819,00
-8816,34	808,00
-8795,11	774,00
-8773,92	629,00
-8752,78	733,00
-8731,68	704,00
-8710,62	738,00
-8689,61	578,00
-8668,63	622,00
-8647,70	721,00
-8626,82	813,00
-8605,97	847,00
-8585,17	752,00
-8564,41	665,00
-8543,69	644,00
-8523,01	476,00
-8502,37	754,00
-8481,78	655,00
-8461,23	567,00
-8440,71	744,00
-8420,24	808,00
-8399,81	953,00
-8379,42	694,00
-8359,08	752,00
-8338,77	644,00
-8318,50	498,00
-8298,27	522,00
-8278,09	629,00
-8257,94	726,00
-8237,83	798,00
-8217,76	814,00
-8197,74	818,00
-8177,75	868,00
-8157,80	624,00
-8137,89	669,00
-8118,02	681,00
-8098,19	714,00
-8078,40	642,00
-8058,65	685,00
-8038,93	674,00
-8019,26	794,00
-7999,62	736,00
-7980,02	702,00
-7960,46	621,00
-7940,94	638,00
-7921,46	672,00
-7902,01	530,00
-7882,60	732,00
-7863,23	612,00
-7843,90	629,00
-7824,61	829,00
-7805,35	848,00
-7786,13	699,00
-7766,95	721,00
-7747,80	777,00
-7728,69	766,00
-7709,62	788,00
-7690,59	720,00
-7671,59	768,00
-7652,63	665,00
-7633,70	703,00
-7614,81	668,00
-7595,96	774,00
-7577,15	650,00
-7558,37	606,00
-7539,62	681,00
-7520,91	645,00
-7502,24	703,00
-7483,60	765,00
-7465,00	700,00
-7446,44	705,00
-7427,91	537,00
-7409,41	566,00
-7390,95	579,00
-7372,53	474,00
-7354,14	536,00
-7335,78	522,00
-7317,46	537,00
-7299,18	510,00
-7280,92	631,00
-7262,71	729,00
-7244,52	668,00
-7226,38	652,00
-7208,26	572,00
-7190,18	629,00
-7172,14	523,00
-7154,12	612,00
-7136,15	494,00
-7118,20	725,00
-7100,29	710,00
-7082,41	711,00
-7064,57	569,00
-7046,76	537,00
-7028,98	472,00
-7011,24	634,00
-6993,53	380,00
-6975,85	479,00
-6958,20	461,00
-6940,59	412,00
-6923,01	313,00
-6905,46	508,00
-6887,94	490,00
-6870,46	-1552,00
-6853,01	618,00
-6835,59	532,00
-6818,21	568,00
-6800,85	575,00
-6783,53	441,00
-6766,24	332,00
-6748,98	431,00
-6731,76	348,00
-6714,56	318,00
-6697,40	312,00
-6680,26	321,00
-6663,16	387,00
-6646,09	500,00
-6629,05	549,00
-6612,05	475,00
-6595,07	385,00
-6578,13	565,00
-6561,21	419,00
-6544,33	486,00
-6527,47	310,00
-6510,65	361,00
-6493,86	293,00
-6477,10	302,00
-6460,36	384,00
-6443,66	271,00
-6426,99	309,00
-6410,35	362,00
-6393,74	449,00
-6377,16	236,00
-6360,61	371,00
-6344,09	304,00
-6327,59	396,00
-6311,13	490,00
-6294,70	470,00
-6278,29	446,00
-6261,92	503,00
-6245,58	529,00
-6229,26	513,00
-6212,97	571,00
-6196,72	342,00
-6180,49	404,00
-6164,29	243,00
-6148,12	438,00
-6131,98	406,00
-6115,86	240,00
-6099,78	300,00
-6083,72	237,00
-6067,69	244,00
-6051,69	314,00
-6035,72	383,00
-6019,78	424,00
-6003,87	499,00
-5987,98	404,00
-5972,12	429,00
-5956,29	436,00
-5940,49	326,00
-5924,71	469,00
-5908,96	323,00
-5893,24	397,00
-5877,55	339,00
-5861,89	364,00
-5846,25	188,00
-5830,64	401,00
-5815,05	325,00
-5799,50	345,00
-5783,97	456,00
-5768,47	410,00
-5752,99	522,00
-5737,55	440,00
-5722,12	349,00
-5706,73	429,00
-5691,36	494,00
-5676,02	389,00
-5660,71	349,00
-5645,42	318,00
-5630,16	418,00
-5614,92	400,00
-5599,71	338,00
-5584,53	445,00
-5569,37	407,00
-5554,24	1301,00
-5539,14	286,00
-5524,06	474,00
-5509,01	483,00
-5493,98	380,00
-5478,98	385,00
-5464,00	324,00
-5449,05	243,00
-5434,13	455,00
-5419,23	385,00
-5404,36	344,00
-5389,51	354,00
-5374,69	426,00
-5359,89	452,00
-5345,12	492,00
-5330,37	528,00
-5315,65	472,00
-5300,95	459,00
-5286,28	379,00
-5271,63	347,00
-5257,01	343,00
-5242,41	304,00
-5227,84	335,00
-5213,29	417,00
-5198,76	404,00
-5184,26	427,00
-5169,79	391,00
-5155,33	394,00
-5140,91	378,00
-5126,51	379,00
-5112,13	486,00
-5097,77	493,00
-5083,44	547,00
-5069,13	432,00
-5054,85	466,00
-5040,59	416,00
-5026,36	473,00
-5012,15	375,00
-4997,96	379,00
-4983,80	514,00
-4969,66	349,00
-4955,54	486,00
-4941,44	480,00
-4927,37	409,00
-4913,33	372,00
-4899,30	446,00
-4885,30	579,00
-4871,33	446,00
-4857,37	445,00
-4843,44	437,00
-4829,53	529,00
-4815,65	409,00
-4801,79	313,00
-4787,95	477,00
-4774,13	445,00
-4760,34	388,00
-4746,56	480,00
-4732,82	483,00
-4719,09	423,00
-4705,38	548,00
-4691,70	519,00
-4678,04	608,00
-4664,41	543,00
-4650,79	574,00
-4637,20	391,00
-4623,63	402,00
-4610,08	495,00
-4596,56	427,00
-4583,05	467,00
-4569,57	386,00
-4556,11	477,00
-4542,67	402,00
-4529,25	456,00
-4515,86	398,00
-4502,49	513,00
-4489,13	517,00
-4475,80	602,00
-4462,49	417,00
-4449,21	531,00
-4435,94	521,00
-4422,70	437,00
-4409,47	401,00
-4396,27	545,00
-4383,09	435,00
-4369,93	495,00
-4356,79	396,00
-4343,67	491,00
-4330,58	525,00
-4317,50	487,00
-4304,45	480,00
-4291,41	517,00
-4278,40	454,00
-4265,41	478,00
-4252,44	566,00
-4239,49	384,00
-4226,55	468,00
-4213,65	445,00
-4200,76	544,00
-4187,89	459,00
-4175,04	425,00
-4162,21	371,00
-4149,40	487,00
-4136,61	449,00
-4123,85	474,00
-4111,10	446,00
-4098,37	450,00
-4085,66	469,00
-4072,98	410,00
-4060,31	412,00
-4047,66	556,00
-4035,04	607,00
-4022,43	502,00
-4009,84	484,00
-3997,27	368,00
-3984,72	544,00
-3972,19	510,00
-3959,69	499,00
-3947,20	391,00
-3934,73	343,00
-3922,27	463,00
-3909,84	429,00
-3897,43	477,00
-3885,04	545,00
-3872,67	480,00
-3860,31	453,00
-3847,98	514,00
-3835,66	556,00
-3823,36	541,00
-3811,09	461,00
-3798,83	412,00
-3786,59	443,00
-3774,37	536,00
-3762,17	455,00
-3749,98	441,00
-3737,82	508,00
-3725,67	574,00
-3713,55	372,00
-3701,44	498,00
-3689,35	532,00
-3677,28	517,00
-3665,22	431,00
-3653,19	485,00
-3641,17	379,00
-3629,18	525,00
-3617,20	456,00
-3605,24	497,00
-3593,30	533,00
-3581,37	577,00
-3569,47	583,00
-3557,58	390,00
-3545,71	516,00
-3533,86	467,00
-3522,02	449,00
-3510,21	476,00
-3498,41	435,00
-3486,63	417,00
-3474,87	486,00
-3463,12	449,00
-3451,40	433,00
-3439,69	453,00
-3428,00	382,00
-3416,33	555,00
-3404,67	409,00
-3393,03	491,00
-3381,41	511,00
-3369,81	496,00
-3358,22	523,00
-3346,66	577,00
-3335,10	454,00
-3323,57	378,00
-3312,06	475,00
-3300,56	514,00
-3289,08	434,00
-3277,61	549,00
-3266,16	438,00
-3254,73	388,00
-3243,32	512,00
-3231,92	439,00
-3220,55	542,00
-3209,18	565,00
-3197,84	501,00
-3186,51	397,00
-3175,20	380,00
-3163,90	477,00
-3152,63	539,00
-3141,36	386,00
-3130,12	519,00
-3118,89	544,00
-3107,68	357,00
-3096,49	499,00
-3085,31	403,00
-3074,15	552,00
-3063,00	468,00
-3051,87	496,00
-3040,76	431,00
-3029,67	529,00
-3018,59	619,00
-3007,52	557,00
-2996,48	471,00
-2985,44	463,00
-2974,43	475,00
-2963,43	490,00
-2952,45	495,00
-2941,48	471,00
-2930,53	510,00
-2919,60	416,00
-2908,68	533,00
-2897,78	490,00
-2886,89	560,00
-2876,02	562,00
-2865,17	410,00
-2854,33	474,00
-2843,50	443,00
-2832,70	430,00
-2821,90	427,00
-2811,13	527,00
-2800,37	493,00
-2789,62	337,00
-2778,89	538,00
-2768,18	513,00
-2757,48	539,00
-2746,80	515,00
-2736,13	465,00
-2725,48	536,00
-2714,84	412,00
-2704,22	513,00
-2693,61	438,00
-2683,02	399,00
-2672,45	477,00
-2661,89	401,00
-2651,34	520,00
-2640,81	429,00
-2630,30	504,00
-2619,80	467,00
-2609,31	518,00
-2598,84	429,00
-2588,39	428,00
-2577,95	503,00
-2567,52	368,00
-2557,11	456,00
-2546,71	524,00
-2536,33	561,00
-2525,97	495,00
-2515,62	519,00
-2505,28	484,00
-2494,96	483,00
-2484,65	531,00
-2474,36	595,00
-2464,08	430,00
-2453,82	525,00
-2443,57	420,00
-2433,33	444,00
-2423,11	535,00
-2412,91	585,00
-2402,72	459,00
-2392,54	470,00
-2382,38	487,00
-2372,23	464,00
-2362,09	1010,00
-2351,97	433,00
-2341,87	444,00
-2331,78	454,00
-2321,70	476,00
-2311,64	460,00
-2301,59	481,00
-2291,55	459,00
-2281,53	587,00
-2271,53	358,00
-2261,53	533,00
-2251,55	450,00
-2241,59	356,00
-2231,64	445,00
-2221,70	434,00
-2211,78	448,00
-2201,87	521,00
-2191,97	463,00
-2182,09	443,00
-2172,22	527,00
-2162,37	481,00
-2152,53	465,00
-2142,70	490,00
-2132,89	419,00
-2123,09	426,00
-2113,30	481,00
-2103,53	367,00
-2093,77	481,00
-2084,02	516,00
-2074,29	544,00
-2064,57	456,00
-2054,86	494,00
-2045,17	555,00
-2035,49	562,00
-2025,82	428,00
-2016,17	439,00
-2006,53	469,00
-1996,91	578,00
-1987,29	448,00
-1977,69	484,00
-1968,11	441,00
-1958,53	536,00
-1948,97	440,00
-1939,42	463,00
-1929,89	480,00
-1920,37	451,00
-1910,86	459,00
-1901,36	489,00
-1891,88	482,00
-1882,41	519,00
-1872,95	458,00
-1863,51	474,00
-1854,08	442,00
-1844,66	496,00
-1835,26	557,00
-1825,86	550,00
-1816,48	409,00
-1807,11	517,00
-1797,76	454,00
-1788,42	515,00
-1779,09	523,00
-1769,77	495,00
-1760,47	522,00
-1751,17	379,00
-1741,89	411,00
-1732,63	478,00
-1723,37	585,00
-1714,13	527,00
-1704,90	485,00
-1695,68	505,00
-1686,48	452,00
-1677,29	482,00
-1668,11	601,00
-1658,94	401,00
-1649,78	477,00
-1640,64	459,00
-1631,51	449,00
-1622,39	501,00
-1613,28	513,00
-1604,19	577,00
-1595,10	536,00
-1586,03	409,00
-1576,97	485,00
-1567,93	437,00
-1558,89	484,00
-1549,87	542,00
-1540,86	406,00
-1531,86	481,00
-1522,87	449,00
-1513,90	511,00
-1504,93	457,00
-1495,98	551,00
-1487,04	508,00
-1478,12	447,00
-1469,20	463,00
-1460,30	460,00
-1451,40	683,00
-1442,52	549,00
-1433,65	553,00
-1424,80	372,00
-1415,95	445,00
-1407,12	675,00
-1398,30	476,00
-1389,48	528,00
-1380,69	438,00
-1371,90	405,00
-1363,12	495,00
-1354,36	572,00
-1345,60	480,00
-1336,86	503,00
-1328,13	564,00
-1319,41	498,00
-1310,70	484,00
-1302,01	470,00
-1293,32	395,00
-1284,65	520,00
-1275,99	519,00
-1267,33	614,00
-1258,69	535,00
-1250,06	487,00
-1241,45	470,00
-1232,84	648,00
-1224,25	467,00
-1215,66	501,00
-1207,09	480,00
-1198,53	435,00
-1189,97	489,00
-1181,43	354,00
-1172,91	471,00
-1164,39	502,00
-1155,88	382,00
-1147,38	364,00
-1138,90	389,00
-1130,43	447,00
-1121,96	430,00
-1113,51	501,00
-1105,07	562,00
-1096,64	558,00
-1088,22	437,00
-1079,81	488,00
-1071,41	533,00
-1063,02	496,00
-1054,65	505,00
-1046,28	491,00
-1037,92	537,00
-1029,58	507,00
-1021,24	571,00
-1012,92	617,00
-1004,61	483,00
-996,30	588,00
-988,01	421,00
-979,73	529,00
-971,46	520,00
-963,20	473,00
-954,95	462,00
-946,71	454,00
-938,48	460,00
-930,26	494,00
-922,06	506,00
-913,86	419,00
-905,67	491,00
-897,49	439,00
-889,33	437,00
-881,17	496,00
-873,02	498,00
-864,89	441,00
-856,76	472,00
-848,65	485,00
-840,54	488,00
-832,45	532,00
-824,36	487,00
-816,29	513,00
-808,22	507,00
-800,17	584,00
-792,12	486,00
-784,09	472,00
-776,06	490,00
-768,05	501,00
-760,04	497,00
-752,05	487,00
-744,07	470,00
-736,09	547,00
-728,13	397,00
-720,17	521,00
-712,23	475,00
-704,29	479,00
-696,37	468,00
-688,45	587,00
-680,55	527,00
-672,65	417,00
-664,77	362,00
-656,89	465,00
-649,03	384,00
-641,17	556,00
-633,32	400,00
-625,49	570,00
-617,66	422,00
-609,84	527,00
-602,03	379,00
-594,23	543,00
-586,45	538,00
-578,67	507,00
-570,90	447,00
-563,14	461,00
-555,39	482,00
-547,65	539,00
-539,91	516,00
-532,19	506,00
-524,48	488,00
-516,78	451,00
-509,08	489,00
-501,40	495,00
-493,72	490,00
-486,06	454,00
-478,40	550,00
-470,76	476,00
-463,12	520,00
-455,49	487,00
-447,87	523,00
-440,26	538,00
-432,66	441,00
-425,07	470,00
-417,49	560,00
-409,92	408,00
-402,35	475,00
-394,80	397,00
-387,25	515,00
-379,72	541,00
-372,19	503,00
-364,67	640,00
-357,17	490,00
-349,67	527,00
-342,18	511,00
-334,69	503,00
-327,22	438,00
-319,76	512,00
-312,30	552,00
-304,86	524,00
-297,42	471,00
-290,00	547,00
-282,58	493,00
-275,17	542,00
-267,77	567,00
-260,37	546,00
-252,99	603,00
-245,62	663,00
-238,25	479,00
-230,90	609,00
-223,55	519,00
-216,21	570,00
-208,88	772,00
-201,56	597,00
-194,25	720,00
-186,94	716,00
-179,65	659,00
-172,36	729,00
-165,08	767,00
-157,81	772,00
-150,55	857,00
-143,30	808,00
-136,06	860,00
-128,82	926,00
-121,60	927,00
-114,38	1071,00
-107,17	1241,00
-99,97	1324,00
-92,78	1344,00
-85,60	1474,00
-78,42	1720,00
-71,25	1845,00
-64,10	2006,00
-56,95	2332,00
-49,81	2741,00
-42,67	3271,00
-35,55	3972,00
-28,43	5197,00
-21,33	8235,00
-14,23	25859,00
-7,14	57498,00
-0,05	57284,00
7,02	57012,00
14,09	57319,00
21,14	23099,00
28,19	9775,00
35,23	6324,00
42,27	5077,00
49,29	4166,00
56,31	3520,00
63,32	3131,00
70,32	2663,00
77,31	2387,00
84,29	2059,00
91,27	1954,00
98,23	1803,00
105,19	1750,00
112,14	1972,00
119,09	2985,00
126,02	4721,00
132,95	5794,00
139,87	6146,00
146,78	6367,00
153,68	6269,00
160,58	6319,00
167,46	6168,00
174,34	6218,00
181,21	6152,00
188,08	6207,00
194,93	6208,00
201,78	6194,00
208,62	6191,00
215,45	6341,00
222,27	6290,00
229,09	6327,00
235,90	6169,00
242,70	6206,00
249,49	6246,00
256,27	6109,00
263,05	6143,00
269,82	6172,00
276,58	6181,00
283,33	6131,00
290,08	6095,00
296,82	6029,00
303,55	5905,00
310,27	5845,00
316,98	6008,00
323,69	5916,00
330,39	5870,00
337,08	5947,00
343,76	5950,00
350,44	5938,00
357,11	5826,00
363,77	5773,00
370,42	5850,00
377,07	5815,00
383,71	5776,00
390,34	5889,00
396,96	5892,00
403,58	5951,00
410,19	6022,00
416,79	5995,00
423,38	5858,00
429,97	5777,00
436,55	5683,00
443,12	5756,00
449,68	5641,00
456,24	5571,00
462,79	5529,00
469,33	5393,00
475,86	5541,00
482,39	5455,00
488,91	5593,00
495,42	5456,00
501,93	5476,00
508,42	5393,00
514,91	5287,00
521,40	5360,00
527,87	5412,00
534,34	5441,00
540,80	5224,00
547,25	5342,00
553,70	5294,00
560,14	5282,00
566,57	5261,00
573,00	5324,00
579,41	5353,00
585,83	5483,00
592,23	5291,00
598,62	5266,00
605,01	5215,00
611,40	5322,00
617,77	5276,00
624,14	5276,00
630,50	5160,00
636,85	5223,00
643,20	5015,00
649,54	4957,00
655,87	5101,00
662,20	5030,00
668,52	5073,00
674,83	5030,00
681,13	4963,00
687,43	5054,00
693,72	4890,00
700,00	4908,00
706,28	4800,00
712,55	4912,00
718,81	4942,00
725,07	4849,00
731,32	4886,00
737,56	4865,00
743,79	4918,00
750,02	4965,00
756,24	4883,00
762,46	4849,00
768,67	4903,00
774,87	4748,00
781,06	4836,00
787,25	4760,00
793,43	4780,00
799,60	4771,00
805,77	4834,00
811,93	4720,00
818,08	4860,00
824,23	4717,00
830,37	4852,00
836,50	4643,00
842,63	4695,00
848,75	4657,00
854,87	4681,00
860,97	4716,00
867,07	4633,00
873,17	4633,00
879,25	4635,00
885,33	4509,00
891,41	4661,00
897,47	4589,00
903,53	4553,00
909,59	4654,00
915,63	4482,00
921,67	4470,00
927,71	4463,00
933,74	4528,00
939,76	4330,00
945,77	4438,00
951,78	4496,00
957,78	4452,00
963,78	4457,00
969,77	4406,00
975,75	4392,00
981,72	4336,00
987,69	5358,00
993,66	4483,00
999,61	4492,00
1005,56	4470,00
1011,51	4402,00
1017,44	4483,00
1023,37	4379,00
1029,30	4436,00
1035,22	4470,00
1041,13	4414,00
1047,03	4425,00
1052,93	4418,00
1058,83	4512,00
1064,71	4623,00
1070,59	4547,00
1076,47	4408,00
1082,33	4431,00
1088,20	4451,00
1094,05	4245,00
1099,90	4217,00
1105,74	4200,00
1111,58	4255,00
1117,41	4291,00
1123,23	4408,00
1129,05	4503,00
1134,86	4483,00
1140,67	4403,00
1146,47	4344,00
1152,26	4290,00
1158,05	4325,00
1163,83	4303,00
1169,60	4184,00
1175,37	4314,00
1181,13	4273,00
1186,89	4226,00
1192,64	4177,00
1198,38	4366,00
1204,12	4064,00
1209,85	4319,00
1215,58	4201,00
1221,30	4355,00
1227,02	4253,00
1232,72	4173,00
1238,43	4227,00
1244,12	4239,00
1249,81	4219,00
1255,50	4375,00
1261,17	4224,00
1266,85	4256,00
1272,51	4288,00
1278,17	4336,00
1283,83	4212,00
1289,47	4398,00
1295,12	4584,00
1300,75	4524,00
1306,38	4388,00
1312,01	4338,00
1317,63	4305,00
1323,24	4329,00
1328,85	4224,00
1334,45	4209,00
1340,04	4251,00
1345,63	4205,00
1351,22	4380,00
1356,80	4305,00
1362,37	4448,00
1367,93	4344,00
1373,49	4471,00
1379,05	4311,00
1384,60	4354,00
1390,14	4432,00
1395,68	4274,00
1401,21	4379,00
1406,74	4380,00
1412,26	4393,00
1417,77	4548,00
1423,28	4436,00
1428,78	4562,00
1434,28	4685,00
1439,77	4728,00
1445,26	4710,00
1450,74	4700,00
1456,22	4503,00
1461,68	4566,00
1467,15	4461,00
1472,61	4311,00
1478,06	4385,00
1483,51	4357,00
1488,95	4071,00
1494,38	4220,00
1499,81	4188,00
1505,24	4081,00
1510,65	4112,00
1516,07	4114,00
1521,48	4062,00
1526,88	3987,00
1532,27	3973,00
1537,67	3996,00
1543,05	3977,00
1548,43	3919,00
1553,81	4088,00
1559,18	3875,00
1564,54	3972,00
1569,90	3956,00
1575,25	3847,00
1580,60	3814,00
1585,94	3929,00
1591,28	3862,00
1596,61	3895,00
1601,93	3865,00
1607,25	3835,00
1612,57	3722,00
1617,88	3861,00
1623,18	3917,00
1628,48	3720,00
1633,77	3686,00
1639,06	3725,00
1644,34	3713,00
1649,62	3734,00
1654,89	3703,00
1660,16	3625,00
1665,42	3801,00
1670,67	3658,00
1675,92	3665,00
1681,17	3618,00
1686,41	3645,00
1691,64	3528,00
1696,87	3606,00
1702,10	3677,00
1707,32	3551,00
1712,53	3559,00
1717,74	3449,00
1722,94	3560,00
1728,14	3448,00
1733,33	3454,00
1738,52	3307,00
1743,70	3316,00
1748,88	3371,00
1754,05	3452,00
1759,22	3356,00
1764,38	3391,00
1769,53	3411,00
1774,69	3387,00
1779,83	3234,00
1784,97	3303,00
1790,11	3280,00
1795,24	3259,00
1800,36	3265,00
1805,48	3084,00
1810,60	3315,00
1815,71	3169,00
1820,82	3181,00
1825,92	3254,00
1831,01	3192,00
1836,10	3141,00
1841,19	3169,00
1846,26	3107,00
1851,34	3219,00
1856,41	3146,00
1861,47	3121,00
1866,53	3231,00
1871,59	3043,00
1876,64	3170,00
1881,68	3066,00
1886,72	3123,00
1891,76	3085,00
1896,79	2981,00
1901,81	2936,00
1906,83	2983,00
1911,85	2876,00
1916,86	2978,00
1921,86	2877,00
1926,86	2891,00
1931,86	2894,00
1936,85	2865,00
1941,83	2803,00
1946,81	2839,00
1951,79	2734,00
1956,76	2741,00
1961,72	2636,00
1966,68	2716,00
1971,64	2767,00
1976,59	2730,00
1981,54	2729,00
1986,48	2750,00
1991,42	2592,00
1996,35	2901,00
2001,27	2660,00
2006,20	2611,00
2011,11	2614,00
2016,03	2654,00
2020,93	2584,00
2025,84	2668,00
2030,73	2677,00
2035,63	2464,00
2040,52	2616,00
2045,40	2552,00
2050,28	2571,00
2055,15	2611,00
2060,02	2474,00
2064,89	2562,00
2069,75	2565,00
2074,60	2485,00
2079,46	2513,00
2084,30	2456,00
2089,14	2454,00
2093,98	2578,00
2098,81	2510,00
2103,64	2476,00
2108,46	2515,00
2113,28	2604,00
2118,09	2499,00
2122,90	2559,00
2127,70	2466,00
2132,50	2463,00
2137,30	2368,00
2142,09	2350,00
2146,87	2446,00
2151,66	2432,00
2156,43	2351,00
2161,20	2300,00
2165,97	2363,00
2170,73	2393,00
2175,49	2466,00
2180,24	2312,00
2184,99	2453,00
2189,74	2431,00
2194,48	2344,00
2199,21	2398,00
2203,94	2312,00
2208,67	2252,00
2213,39	2135,00
2218,11	2338,00
2222,82	2195,00
2227,53	2317,00
2232,23	2196,00
2236,93	2244,00
2241,63	2116,00
2246,32	2289,00
2251,00	2145,00
2255,68	2102,00
2260,36	2132,00
2265,03	2235,00
2269,70	2346,00
2274,36	2181,00
2279,02	2160,00
2283,68	2107,00
2288,33	2189,00
2292,97	2175,00
2297,61	2038,00
2302,25	2043,00
2306,88	2047,00
2311,51	2066,00
2316,14	2045,00
2320,75	2004,00
2325,37	2035,00
2329,98	2027,00
2334,59	2139,00
2339,19	2060,00
2343,79	1919,00
2348,38	2016,00
2352,97	1925,00
2357,55	1970,00
2362,13	1980,00
2366,71	1936,00
2371,28	1990,00
2375,85	1932,00
2380,41	1997,00
2384,97	1976,00
2389,52	2013,00
2394,07	1900,00
2398,62	1841,00
2403,16	1909,00
2407,70	1830,00
2412,23	1830,00
2416,76	1921,00
2421,29	1921,00
2425,81	1912,00
2430,32	1879,00
2434,84	1743,00
2439,34	1799,00
2443,85	1917,00
2448,35	1751,00
2452,84	1816,00
2457,33	1787,00
2461,82	1662,00
2466,30	1643,00
2470,78	1807,00
2475,25	1786,00
2479,72	1750,00
2484,19	1787,00
2488,65	1712,00
2493,11	1607,00
2497,56	1775,00
2502,01	1638,00
2506,46	1740,00
2510,90	1713,00
2515,34	1628,00
2519,77	1750,00
2524,20	1673,00
2528,62	1583,00
2533,04	1627,00
2537,46	1674,00
2541,87	1642,00
2546,28	1591,00
2550,68	1713,00
2555,08	1651,00
2559,48	1622,00
2563,87	1461,00
2568,26	1515,00
2572,64	1580,00
2577,02	1513,00
2581,40	1469,00
2585,77	1510,00
2590,14	1496,00
2594,50	1427,00
2598,86	1453,00
2603,22	1410,00
2607,57	1345,00
2611,92	1477,00
2616,26	1556,00
2620,60	1451,00
2624,94	1382,00
2629,27	1356,00
2633,60	1389,00
2637,92	1491,00
2642,24	1445,00
2646,56	1374,00
2650,87	1280,00
2655,18	1386,00
2659,48	1292,00
2663,78	1352,00
2668,08	1342,00
2672,37	1337,00
2676,66	1336,00
2680,95	1218,00
2685,23	1396,00
2689,50	1350,00
2693,78	1336,00
2698,05	1372,00
2702,31	1406,00
2706,57	1389,00
2710,83	1394,00
2715,08	1413,00
2719,33	1396,00
2723,58	1380,00
2727,82	1420,00
2732,06	1350,00
2736,29	1319,00
2740,53	1252,00
2744,75	1276,00
2748,97	1268,00
2753,19	1258,00
2757,41	1334,00
2761,62	1309,00
2765,83	1310,00
2770,03	1241,00
2774,23	1381,00
2778,43	1242,00
2782,62	1271,00
2786,81	1213,00
2791,00	1274,00
2795,18	1247,00
2799,35	1330,00
2803,53	1282,00
2807,70	1249,00
2811,86	1232,00
2816,03	1373,00
2820,19	1295,00
2824,34	1242,00
2828,49	1277,00
2832,64	1318,00
2836,78	1412,00
2840,92	1371,00
2845,06	1629,00
2849,19	1672,00
2853,32	1590,00
2857,45	1548,00
2861,57	1566,00
2865,69	1658,00
2869,80	1585,00
2873,91	1591,00
2878,02	1611,00
2882,12	1549,00
2886,22	1592,00
2890,32	1539,00
2894,41	1597,00
2898,50	1536,00
2902,58	1566,00
2906,67	1436,00
2910,74	1412,00
2914,82	1427,00
2918,89	1392,00
2922,96	1298,00
2927,02	1215,00
2931,08	1297,00
2935,13	1100,00
2939,19	1191,00
2943,24	1139,00
2947,28	1206,00
2951,32	1075,00
2955,36	1076,00
2959,40	1103,00
2963,43	1074,00
2967,46	1019,00
2971,48	1119,00
2975,50	1067,00
2979,52	1087,00
2983,53	986,00
2987,54	1026,00
2991,55	1017,00
2995,55	976,00
2999,55	956,00
3003,54	965,00
3007,54	1005,00
3011,53	956,00
3015,51	898,00
3019,49	930,00
3023,47	816,00
3027,45	930,00
3031,42	804,00
3035,39	947,00
3039,35	837,00
3043,31	947,00
3047,27	905,00
3051,22	868,00
3055,17	860,00
3059,12	821,00
3063,06	850,00
3067,00	789,00
3070,94	802,00
3074,87	885,00
3078,80	856,00
3082,73	904,00
3086,65	840,00
3090,57	866,00
3094,49	787,00
3098,40	788,00
3102,31	869,00
3106,22	796,00
3110,12	786,00
3114,02	763,00
3117,92	786,00
3121,81	877,00
3125,70	808,00
3129,58	765,00
3133,47	661,00
3137,34	820,00
3141,22	843,00
3145,09	754,00
3148,96	732,00
3152,83	812,00
3156,69	830,00
3160,55	701,00
3164,40	862,00
3168,26	803,00
3172,10	819,00
3175,95	813,00
3179,79	820,00
3183,63	745,00
3187,47	672,00
3191,30	809,00
3195,13	738,00
3198,95	635,00
3202,78	765,00
3206,60	668,00
3210,41	687,00
3214,23	654,00
3218,03	812,00
3221,84	685,00
3225,64	677,00
3229,44	661,00
3233,24	743,00
3237,03	641,00
3240,82	662,00
3244,61	685,00
3248,39	663,00
3252,17	706,00
3255,95	782,00
3259,72	745,00
3263,49	845,00
3267,26	645,00
3271,03	709,00
3274,79	609,00
3278,54	681,00
3282,30	604,00
3286,05	707,00
3289,80	662,00
3293,54	671,00
3297,29	709,00
3301,02	630,00
3304,76	657,00
3308,49	653,00
3312,22	610,00
3315,95	590,00
3319,67	626,00
3323,39	695,00
3327,10	691,00
3330,82	675,00
3334,53	723,00
3338,24	714,00
3341,94	568,00
3345,64	597,00
3349,34	602,00
3353,03	641,00
3356,72	621,00
3360,41	619,00
3364,10	540,00
3367,78	600,00
3371,46	593,00
3375,13	636,00
3378,81	636,00
3382,48	501,00
3386,14	640,00
3389,81	595,00
3393,47	620,00
3397,12	601,00
3400,78	584,00
3404,43	600,00
3408,08	613,00
3411,72	539,00
3415,36	558,00
3419,00	628,00
3422,64	572,00
3426,27	600,00
3429,90	553,00
3433,53	528,00
3437,15	528,00
3440,77	486,00
3444,39	512,00
3448,00	521,00
3451,62	531,00
3455,22	611,00
3458,83	473,00
3462,43	576,00
3466,03	638,00
3469,63	462,00
3473,22	464,00
3476,81	489,00
3480,40	677,00
3483,99	511,00
3487,57	557,00
3491,15	558,00
3494,72	583,00
3498,29	658,00
3501,86	447,00
3505,43	564,00
3508,99	488,00
3512,56	429,00
3516,11	516,00
3519,67	515,00
3523,22	514,00
3526,77	509,00
3530,32	694,00
3533,86	582,00
3537,40	552,00
3540,94	525,00
3544,47	560,00
3548,00	527,00
3551,53	526,00
3555,06	434,00
3558,58	530,00
3562,10	539,00
3565,62	456,00
3569,13	499,00
3572,64	638,00
3576,15	427,00
3579,66	459,00
3583,16	443,00
3586,66	484,00
3590,16	486,00
3593,65	475,00
3597,14	434,00
3600,63	519,00
3604,11	436,00
3607,60	526,00
3611,08	503,00
3614,55	494,00
3618,03	427,00
3621,50	474,00
3624,97	462,00
3628,43	385,00
3631,90	461,00
3635,36	430,00
3638,81	503,00
3642,27	492,00
3645,72	505,00
3649,17	381,00
3652,61	416,00
3656,06	459,00
3659,50	479,00
3662,93	484,00
3666,37	423,00
3669,80	613,00
3673,23	548,00
3676,65	408,00
3680,08	462,00
3683,50	429,00
3686,92	416,00
3690,33	434,00
3693,74	452,00
3697,15	410,00
3700,56	522,00
3703,96	450,00
3707,36	342,00
3710,76	436,00
3714,16	373,00
3717,55	479,00
3720,94	382,00
3724,33	434,00
3727,71	506,00
3731,10	453,00
3734,48	432,00
3737,85	418,00
3741,23	437,00
3744,60	390,00
3747,97	333,00
3751,33	494,00
3754,69	414,00
3758,05	476,00
3761,41	392,00
3764,77	388,00
3768,12	420,00
3771,47	315,00
3774,82	436,00
3778,16	-4,00
3781,50	10,00
3784,84	3,00
3788,18	12,00
>>>>>End Processed Spectral Data<<<<<
