SpectraSuite Data File
++++++++++++++++++++++++++++++++++++
Date: Mon Jan 05 16:24:46 ICT 2026
User: Administrator
Dark Spectrum Present: Yes
Reference Spectrum Present: No
Number of Sampled Component Spectra: 1
Spectrometers: MAYP113682
Integration Time (usec): 3000000 (MAYP113682)
Spectra Averaged: 1 (MAYP113682)
Boxcar Smoothing: 0 (MAYP113682)
Correct for Electrical Dark: No (MAYP113682)
Strobe/Lamp Enabled: No (MAYP113682)
Correct for Detector Non-linearity: No (MAYP113682)
Correct for Stray Light: No (MAYP113682)
Number of Pixels in Processed Spectrum: 2068
>>>>>Begin Processed Spectral Data<<<<<
-37534,58	13,00
-37414,56	10,00
-37295,11	3,00
-37176,24	-2,00
-37057,95	232,00
-36940,22	282,00
-36823,05	386,00
-36706,45	333,00
-36590,40	374,00
-36474,90	305,00
-36359,95	365,00
-36245,55	404,00
-36131,68	275,00
-36018,35	312,00
-35905,55	309,00
-35793,29	392,00
-35681,54	236,00
-35570,32	368,00
-35459,62	358,00
-35349,43	335,00
-35239,75	387,00
-35130,58	383,00
-35021,91	350,00
-34913,74	385,00
-34806,07	345,00
-34698,89	369,00
-34592,20	382,00
-34486,00	323,00
-34380,28	410,00
-34275,04	301,00
-34170,27	291,00
-34065,98	455,00
-33962,16	376,00
-33858,81	427,00
-33755,92	325,00
-33653,49	438,00
-33551,52	402,00
-33450,01	387,00
-33348,94	407,00
-33248,33	279,00
-33148,16	356,00
-33048,43	355,00
-32949,14	490,00
-32850,29	419,00
-32751,87	316,00
-32653,89	415,00
-32556,33	342,00
-32459,20	374,00
-32362,49	345,00
-32266,19	374,00
-32170,32	366,00
-32074,86	401,00
-31979,82	499,00
-31885,18	410,00
-31790,95	475,00
-31697,12	426,00
-31603,69	382,00
-31510,67	445,00
-31418,04	430,00
-31325,80	324,00
-31233,95	339,00
-31142,49	396,00
-31051,42	295,00
-30960,73	494,00
-30870,43	413,00
-30780,50	398,00
-30690,95	392,00
-30601,77	510,00
-30512,97	394,00
-30424,53	367,00
-30336,46	347,00
-30248,76	335,00
-30161,42	473,00
-30074,44	420,00
-29987,81	416,00
-29901,55	483,00
-29815,63	418,00
-29730,07	400,00
-29644,86	425,00
-29560,00	415,00
-29475,48	464,00
-29391,30	483,00
-29307,47	402,00
-29223,97	402,00
-29140,81	480,00
-29057,99	516,00
-28975,50	358,00
-28893,34	509,00
-28811,51	375,00
-28730,00	476,00
-28648,82	397,00
-28567,97	434,00
-28487,43	406,00
-28407,21	412,00
-28327,32	274,00
-28247,73	442,00
-28168,46	422,00
-28089,50	340,00
-28010,85	354,00
-27932,51	373,00
-27854,48	436,00
-27776,75	307,00
-27699,32	440,00
-27622,19	400,00
-27545,37	411,00
-27468,84	359,00
-27392,60	383,00
-27316,66	355,00
-27241,01	355,00
-27165,66	375,00
-27090,59	373,00
-27015,81	479,00
-26941,31	409,00
-26867,10	337,00
-26793,17	443,00
-26719,52	390,00
-26646,15	326,00
-26573,06	400,00
-26500,24	395,00
-26427,70	420,00
-26355,43	327,00
-26283,43	374,00
-26211,71	369,00
-26140,25	473,00
-26069,06	405,00
-25998,13	407,00
-25927,46	314,00
-25857,06	326,00
-25786,92	390,00
-25717,04	375,00
-25647,42	426,00
-25578,05	305,00
-25508,94	339,00
-25440,09	391,00
-25371,48	385,00
-25303,13	458,00
-25235,02	420,00
-25167,17	320,00
-25099,56	457,00
-25032,19	336,00
-24965,07	309,00
-24898,20	367,00
-24831,56	288,00
-24765,17	359,00
-24699,01	403,00
-24633,10	469,00
-24567,41	466,00
-24501,97	317,00
-24436,75	337,00
-24371,77	316,00
-24307,03	337,00
-24242,51	414,00
-24178,22	399,00
-24114,16	354,00
-24050,32	372,00
-23986,71	376,00
-23923,32	447,00
-23860,16	436,00
-23797,22	381,00
-23734,50	406,00
-23672,00	362,00
-23609,71	336,00
-23547,65	349,00
-23485,80	450,00
-23424,16	283,00
-23362,74	505,00
-23301,53	463,00
-23240,54	348,00
-23179,75	269,00
-23119,17	309,00
-23058,80	294,00
-22998,64	441,00
-22938,68	357,00
-22878,93	358,00
-22819,39	340,00
-22760,04	276,00
-22700,90	394,00
-22641,96	333,00
-22583,22	319,00
-22524,68	395,00
-22466,33	369,00
-22408,19	449,00
-22350,23	297,00
-22292,48	392,00
-22234,92	389,00
-22177,55	414,00
-22120,37	464,00
-22063,38	316,00
-22006,58	401,00
-21949,98	379,00
-21893,56	280,00
-21837,33	376,00
-21781,28	361,00
-21725,42	386,00
-21669,74	467,00
-21614,25	357,00
-21558,94	384,00
-21503,81	387,00
-21448,86	460,00
-21394,10	343,00
-21339,51	369,00
-21285,10	332,00
-21230,86	336,00
-21176,81	380,00
-21122,93	392,00
-21069,22	238,00
-21015,69	344,00
-20962,33	404,00
-20909,14	379,00
-20856,13	337,00
-20803,28	451,00
-20750,61	376,00
-20698,10	332,00
-20645,76	270,00
-20593,59	453,00
-20541,59	393,00
-20489,75	412,00
-20438,07	272,00
-20386,56	373,00
-20335,22	307,00
-20284,03	371,00
-20233,01	406,00
-20182,15	375,00
-20131,45	318,00
-20080,91	302,00
-20030,52	391,00
-19980,30	287,00
-19930,23	286,00
-19880,32	397,00
-19830,56	345,00
-19780,96	403,00
-19731,52	358,00
-19682,23	359,00
-19633,09	355,00
-19584,10	332,00
-19535,26	385,00
-19486,58	405,00
-19438,04	364,00
-19389,66	498,00
-19341,42	355,00
-19293,33	410,00
-19245,39	404,00
-19197,60	383,00
-19149,95	416,00
-19102,45	445,00
-19055,09	286,00
-19007,87	299,00
-18960,80	379,00
-18913,87	357,00
-18867,09	393,00
-18820,44	505,00
-18773,94	343,00
-18727,57	443,00
-18681,35	293,00
-18635,26	429,00
-18589,31	295,00
-18543,50	418,00
-18497,83	420,00
-18452,29	462,00
-18406,89	266,00
-18361,63	415,00
-18316,50	465,00
-18271,50	386,00
-18226,63	410,00
-18181,90	390,00
-18137,30	390,00
-18092,84	383,00
-18048,50	450,00
-18004,29	378,00
-17960,22	330,00
-17916,27	331,00
-17872,45	392,00
-17828,76	485,00
-17785,20	334,00
-17741,77	377,00
-17698,46	445,00
-17655,28	378,00
-17612,22	435,00
-17569,29	313,00
-17526,48	353,00
-17483,79	442,00
-17441,23	331,00
-17398,79	394,00
-17356,48	363,00
-17314,28	445,00
-17272,21	361,00
-17230,26	477,00
-17188,42	348,00
-17146,71	440,00
-17105,12	334,00
-17063,64	325,00
-17022,28	328,00
-16981,04	349,00
-16939,92	444,00
-16898,91	473,00
-16858,02	327,00
-16817,25	365,00
-16776,59	359,00
-16736,04	369,00
-16695,61	401,00
-16655,29	369,00
-16615,09	293,00
-16574,99	378,00
-16535,01	431,00
-16495,15	356,00
-16455,39	433,00
-16415,74	380,00
-16376,21	370,00
-16336,78	327,00
-16297,46	392,00
-16258,26	332,00
-16219,16	381,00
-16180,17	408,00
-16141,28	424,00
-16102,51	374,00
-16063,84	348,00
-16025,27	392,00
-15986,82	366,00
-15948,46	364,00
-15910,22	405,00
-15872,07	333,00
-15834,04	444,00
-15796,10	388,00
-15758,27	418,00
-15720,54	326,00
-15682,91	344,00
-15645,39	453,00
-15607,97	452,00
-15570,64	309,00
-15533,42	468,00
-15496,30	478,00
-15459,28	462,00
-15422,36	345,00
-15385,54	353,00
-15348,82	371,00
-15312,19	448,00
-15275,66	301,00
-15239,23	440,00
-15202,90	301,00
-15166,67	402,00
-15130,53	415,00
-15094,48	397,00
-15058,54	344,00
-15022,68	303,00
-14986,93	335,00
-14951,26	442,00
-14915,69	385,00
-14880,22	390,00
-14844,84	349,00
-14809,55	344,00
-14774,35	440,00
-14739,25	336,00
-14704,24	401,00
-14669,32	411,00
-14634,49	310,00
-14599,75	357,00
-14565,10	409,00
-14530,55	360,00
-14496,08	511,00
-14461,70	470,00
-14427,41	377,00
-14393,21	294,00
-14359,10	322,00
-14325,07	375,00
-14291,14	317,00
-14257,29	385,00
-14223,52	396,00
-14189,85	449,00
-14156,26	418,00
-14122,76	330,00
-14089,34	359,00
-14056,01	381,00
-14022,76	317,00
-13989,60	364,00
-13956,52	430,00
-13923,53	404,00
-13890,62	327,00
-13857,79	351,00
-13825,05	334,00
-13792,39	275,00
-13759,81	440,00
-13727,31	316,00
-13694,90	397,00
-13662,57	474,00
-13630,31	445,00
-13598,14	388,00
-13566,05	361,00
-13534,05	377,00
-13502,12	356,00
-13470,27	335,00
-13438,50	406,00
-13406,80	349,00
-13375,19	383,00
-13343,66	407,00
-13312,20	373,00
-13280,83	284,00
-13249,53	384,00
-13218,30	255,00
-13187,16	340,00
-13156,09	472,00
-13125,10	435,00
-13094,18	448,00
-13063,34	419,00
-13032,58	345,00
-13001,89	376,00
-12971,28	406,00
-12940,74	349,00
-12910,27	419,00
-12879,88	347,00
-12849,57	388,00
-12819,33	422,00
-12789,16	477,00
-12759,06	353,00
-12729,04	344,00
-12699,09	248,00
-12669,21	346,00
-12639,41	385,00
-12609,68	314,00
-12580,02	361,00
-12550,43	485,00
-12520,91	340,00
-12491,46	395,00
-12462,08	324,00
-12432,77	341,00
-12403,54	273,00
-12374,37	322,00
-12345,27	441,00
-12316,24	387,00
-12287,29	391,00
-12258,40	410,00
-12229,57	445,00
-12200,82	344,00
-12172,14	431,00
-12143,52	272,00
-12114,97	373,00
-12086,49	376,00
-12058,07	408,00
-12029,73	370,00
-12001,44	412,00
-11973,23	357,00
-11945,08	271,00
-11917,00	390,00
-11888,98	304,00
-11861,03	490,00
-11833,15	354,00
-11805,32	420,00
-11777,57	327,00
-11749,88	447,00
-11722,25	323,00
-11694,69	308,00
-11667,19	369,00
-11639,75	443,00
-11612,38	266,00
-11585,07	343,00
-11557,83	400,00
-11530,65	461,00
-11503,53	312,00
-11476,47	411,00
-11449,48	395,00
-11422,54	438,00
-11395,67	416,00
-11368,86	517,00
-11342,11	269,00
-11315,43	338,00
-11288,80	367,00
-11262,23	368,00
-11235,73	345,00
-11209,28	492,00
-11182,90	417,00
-11156,57	373,00
-11130,31	550,00
-11104,10	414,00
-11077,96	348,00
-11051,87	308,00
-11025,84	319,00
-10999,87	381,00
-10973,96	352,00
-10948,11	344,00
-10922,31	442,00
-10896,58	332,00
-10870,90	444,00
-10845,28	349,00
-10819,71	362,00
-10794,20	354,00
-10768,75	399,00
-10743,36	388,00
-10718,02	331,00
-10692,74	297,00
-10667,52	374,00
-10642,35	308,00
-10617,24	365,00
-10592,18	446,00
-10567,18	387,00
-10542,23	394,00
-10517,34	384,00
-10492,51	360,00
-10467,72	347,00
-10443,00	397,00
-10418,32	425,00
-10393,70	406,00
-10369,14	328,00
-10344,63	296,00
-10320,17	398,00
-10295,77	372,00
-10271,42	313,00
-10247,12	316,00
-10222,88	394,00
-10198,68	281,00
-10174,54	315,00
-10150,46	476,00
-10126,42	364,00
-10102,44	266,00
-10078,51	184,00
-10054,63	360,00
-10030,80	345,00
-10007,03	365,00
-9983,30	277,00
-9959,63	360,00
-9936,01	342,00
-9912,44	385,00
-9888,92	327,00
-9865,44	293,00
-9842,02	293,00
-9818,65	311,00
-9795,33	254,00
-9772,06	238,00
-9748,84	205,00
-9725,67	278,00
-9702,55	237,00
-9679,47	140,00
-9656,45	160,00
-9633,47	57,00
-9610,55	140,00
-9587,67	202,00
-9564,84	223,00
-9542,06	101,00
-9519,32	96,00
-9496,64	159,00
-9474,00	-76,00
-9451,41	-90,00
-9428,87	29,00
-9406,37	-16,00
-9383,92	-59,00
-9361,52	-63,00
-9339,17	30,00
-9316,86	-140,00
-9294,60	-96,00
-9272,38	-123,00
-9250,21	-187,00
-9228,09	-305,00
-9206,01	-176,00
-9183,98	-206,00
-9162,00	-272,00
-9140,06	-197,00
-9118,16	-247,00
-9096,31	-285,00
-9074,51	-265,00
-9052,75	-101,00
-9031,04	-154,00
-9009,37	-277,00
-8987,74	-123,00
-8966,16	-47,00
-8944,63	-158,00
-8923,14	29,00
-8901,69	-13,00
-8880,29	-186,00
-8858,93	-74,00
-8837,61	-74,00
-8816,34	-164,00
-8795,11	-102,00
-8773,92	-215,00
-8752,78	-69,00
-8731,68	-87,00
-8710,62	41,00
-8689,61	-135,00
-8668,63	-111,00
-8647,70	-91,00
-8626,82	-68,00
-8605,97	-18,00
-8585,17	-7,00
-8564,41	-57,00
-8543,69	-106,00
-8523,01	-60,00
-8502,37	85,00
-8481,78	-27,00
-8461,23	-95,00
-8440,71	-165,00
-8420,24	-196,00
-8399,81	-139,00
-8379,42	-279,00
-8359,08	-112,00
-8338,77	-172,00
-8318,50	-146,00
-8298,27	-204,00
-8278,09	-40,00
-8257,94	-51,00
-8237,83	-30,00
-8217,76	-95,00
-8197,74	-75,00
-8177,75	-74,00
-8157,80	-163,00
-8137,89	-89,00
-8118,02	-65,00
-8098,19	56,00
-8078,40	-46,00
-8058,65	-28,00
-8038,93	-12,00
-8019,26	-72,00
-7999,62	4,00
-7980,02	-55,00
-7960,46	-15,00
-7940,94	-70,00
-7921,46	-12,00
-7902,01	-40,00
-7882,60	152,00
-7863,23	4,00
-7843,90	-16,00
-7824,61	83,00
-7805,35	43,00
-7786,13	-76,00
-7766,95	-17,00
-7747,80	46,00
-7728,69	44,00
-7709,62	56,00
-7690,59	93,00
-7671,59	133,00
-7652,63	-149,00
-7633,70	-130,00
-7614,81	4,00
-7595,96	35,00
-7577,15	117,00
-7558,37	47,00
-7539,62	19,00
-7520,91	28,00
-7502,24	-93,00
-7483,60	-51,00
-7465,00	-7,00
-7446,44	162,00
-7427,91	-4,00
-7409,41	121,00
-7390,95	195,00
-7372,53	-40,00
-7354,14	164,00
-7335,78	-4,00
-7317,46	65,00
-7299,18	-150,00
-7280,92	-39,00
-7262,71	-7,00
-7244,52	-18,00
-7226,38	25,00
-7208,26	-120,00
-7190,18	-12,00
-7172,14	-9,00
-7154,12	63,00
-7136,15	-13,00
-7118,20	75,00
-7100,29	-16,00
-7082,41	58,00
-7064,57	-40,00
-7046,76	-12,00
-7028,98	-99,00
-7011,24	-35,00
-6993,53	-7,00
-6975,85	169,00
-6958,20	104,00
-6940,59	95,00
-6923,01	9,00
-6905,46	140,00
-6887,94	40,00
-6870,46	-2254,00
-6853,01	-7,00
-6835,59	-74,00
-6818,21	-92,00
-6800,85	9,00
-6783,53	16,00
-6766,24	16,00
-6748,98	99,00
-6731,76	103,00
-6714,56	40,00
-6697,40	34,00
-6680,26	29,00
-6663,16	82,00
-6646,09	61,00
-6629,05	13,00
-6612,05	-79,00
-6595,07	-103,00
-6578,13	37,00
-6561,21	15,00
-6544,33	98,00
-6527,47	4,00
-6510,65	132,00
-6493,86	-26,00
-6477,10	66,00
-6460,36	112,00
-6443,66	74,00
-6426,99	46,00
-6410,35	173,00
-6393,74	158,00
-6377,16	79,00
-6360,61	59,00
-6344,09	-122,00
-6327,59	1,00
-6311,13	87,00
-6294,70	87,00
-6278,29	2,00
-6261,92	-45,00
-6245,58	-43,00
-6229,26	-15,00
-6212,97	-47,00
-6196,72	-81,00
-6180,49	122,00
-6164,29	100,00
-6148,12	330,00
-6131,98	320,00
-6115,86	129,00
-6099,78	169,00
-6083,72	264,00
-6067,69	79,00
-6051,69	92,00
-6035,72	322,00
-6019,78	155,00
-6003,87	184,00
-5987,98	-9,00
-5972,12	89,00
-5956,29	73,00
-5940,49	-98,00
-5924,71	272,00
-5908,96	115,00
-5893,24	211,00
-5877,55	190,00
-5861,89	292,00
-5846,25	98,00
-5830,64	145,00
-5815,05	105,00
-5799,50	174,00
-5783,97	225,00
-5768,47	104,00
-5752,99	148,00
-5737,55	53,00
-5722,12	32,00
-5706,73	23,00
-5691,36	143,00
-5676,02	84,00
-5660,71	173,00
-5645,42	204,00
-5630,16	232,00
-5614,92	269,00
-5599,71	-27,00
-5584,53	20,00
-5569,37	61,00
-5554,24	1017,00
-5539,14	113,00
-5524,06	202,00
-5509,01	134,00
-5493,98	92,00
-5478,98	23,00
-5464,00	28,00
-5449,05	120,00
-5434,13	248,00
-5419,23	112,00
-5404,36	153,00
-5389,51	93,00
-5374,69	117,00
-5359,89	92,00
-5345,12	38,00
-5330,37	136,00
-5315,65	111,00
-5300,95	147,00
-5286,28	208,00
-5271,63	62,00
-5257,01	88,00
-5242,41	91,00
-5227,84	97,00
-5213,29	203,00
-5198,76	209,00
-5184,26	304,00
-5169,79	204,00
-5155,33	138,00
-5140,91	16,00
-5126,51	30,00
-5112,13	139,00
-5097,77	78,00
-5083,44	261,00
-5069,13	226,00
-5054,85	231,00
-5040,59	166,00
-5026,36	158,00
-5012,15	260,00
-4997,96	110,00
-4983,80	202,00
-4969,66	208,00
-4955,54	188,00
-4941,44	205,00
-4927,37	61,00
-4913,33	-8,00
-4899,30	-35,00
-4885,30	45,00
-4871,33	80,00
-4857,37	184,00
-4843,44	145,00
-4829,53	360,00
-4815,65	243,00
-4801,79	23,00
-4787,95	247,00
-4774,13	154,00
-4760,34	211,00
-4746,56	329,00
-4732,82	132,00
-4719,09	222,00
-4705,38	207,00
-4691,70	72,00
-4678,04	179,00
-4664,41	232,00
-4650,79	289,00
-4637,20	225,00
-4623,63	206,00
-4610,08	246,00
-4596,56	142,00
-4583,05	106,00
-4569,57	175,00
-4556,11	290,00
-4542,67	274,00
-4529,25	208,00
-4515,86	185,00
-4502,49	78,00
-4489,13	196,00
-4475,80	223,00
-4462,49	158,00
-4449,21	274,00
-4435,94	351,00
-4422,70	201,00
-4409,47	100,00
-4396,27	187,00
-4383,09	145,00
-4369,93	338,00
-4356,79	252,00
-4343,67	325,00
-4330,58	330,00
-4317,50	281,00
-4304,45	286,00
-4291,41	342,00
-4278,40	281,00
-4265,41	288,00
-4252,44	215,00
-4239,49	207,00
-4226,55	227,00
-4213,65	268,00
-4200,76	401,00
-4187,89	448,00
-4175,04	266,00
-4162,21	225,00
-4149,40	357,00
-4136,61	334,00
-4123,85	321,00
-4111,10	432,00
-4098,37	347,00
-4085,66	290,00
-4072,98	378,00
-4060,31	303,00
-4047,66	402,00
-4035,04	381,00
-4022,43	287,00
-4009,84	374,00
-3997,27	288,00
-3984,72	309,00
-3972,19	317,00
-3959,69	390,00
-3947,20	367,00
-3934,73	324,00
-3922,27	288,00
-3909,84	310,00
-3897,43	430,00
-3885,04	504,00
-3872,67	400,00
-3860,31	372,00
-3847,98	433,00
-3835,66	469,00
-3823,36	370,00
-3811,09	406,00
-3798,83	372,00
-3786,59	378,00
-3774,37	390,00
-3762,17	399,00
-3749,98	453,00
-3737,82	377,00
-3725,67	487,00
-3713,55	242,00
-3701,44	487,00
-3689,35	371,00
-3677,28	468,00
-3665,22	405,00
-3653,19	335,00
-3641,17	346,00
-3629,18	423,00
-3617,20	388,00
-3605,24	326,00
-3593,30	446,00
-3581,37	443,00
-3569,47	336,00
-3557,58	480,00
-3545,71	387,00
-3533,86	464,00
-3522,02	304,00
-3510,21	429,00
-3498,41	450,00
-3486,63	387,00
-3474,87	366,00
-3463,12	359,00
-3451,40	436,00
-3439,69	378,00
-3428,00	323,00
-3416,33	305,00
-3404,67	300,00
-3393,03	404,00
-3381,41	504,00
-3369,81	387,00
-3358,22	436,00
-3346,66	412,00
-3335,10	382,00
-3323,57	274,00
-3312,06	422,00
-3300,56	474,00
-3289,08	369,00
-3277,61	372,00
-3266,16	365,00
-3254,73	420,00
-3243,32	409,00
-3231,92	375,00
-3220,55	336,00
-3209,18	462,00
-3197,84	328,00
-3186,51	425,00
-3175,20	297,00
-3163,90	330,00
-3152,63	419,00
-3141,36	346,00
-3130,12	321,00
-3118,89	448,00
-3107,68	340,00
-3096,49	423,00
-3085,31	369,00
-3074,15	411,00
-3063,00	360,00
-3051,87	417,00
-3040,76	336,00
-3029,67	480,00
-3018,59	461,00
-3007,52	438,00
-2996,48	333,00
-2985,44	419,00
-2974,43	403,00
-2963,43	286,00
-2952,45	451,00
-2941,48	399,00
-2930,53	407,00
-2919,60	286,00
-2908,68	350,00
-2897,78	404,00
-2886,89	425,00
-2876,02	394,00
-2865,17	328,00
-2854,33	424,00
-2843,50	357,00
-2832,70	398,00
-2821,90	270,00
-2811,13	443,00
-2800,37	427,00
-2789,62	309,00
-2778,89	422,00
-2768,18	357,00
-2757,48	424,00
-2746,80	381,00
-2736,13	409,00
-2725,48	518,00
-2714,84	282,00
-2704,22	416,00
-2693,61	386,00
-2683,02	410,00
-2672,45	420,00
-2661,89	433,00
-2651,34	394,00
-2640,81	378,00
-2630,30	498,00
-2619,80	292,00
-2609,31	411,00
-2598,84	408,00
-2588,39	434,00
-2577,95	319,00
-2567,52	311,00
-2557,11	331,00
-2546,71	398,00
-2536,33	442,00
-2525,97	348,00
-2515,62	425,00
-2505,28	367,00
-2494,96	397,00
-2484,65	446,00
-2474,36	465,00
-2464,08	312,00
-2453,82	534,00
-2443,57	383,00
-2433,33	401,00
-2423,11	395,00
-2412,91	392,00
-2402,72	323,00
-2392,54	344,00
-2382,38	424,00
-2372,23	424,00
-2362,09	-2787,00
-2351,97	437,00
-2341,87	321,00
-2331,78	403,00
-2321,70	380,00
-2311,64	361,00
-2301,59	429,00
-2291,55	275,00
-2281,53	483,00
-2271,53	307,00
-2261,53	481,00
-2251,55	430,00
-2241,59	408,00
-2231,64	377,00
-2221,70	418,00
-2211,78	361,00
-2201,87	343,00
-2191,97	432,00
-2182,09	382,00
-2172,22	422,00
-2162,37	328,00
-2152,53	364,00
-2142,70	381,00
-2132,89	366,00
-2123,09	415,00
-2113,30	330,00
-2103,53	268,00
-2093,77	373,00
-2084,02	446,00
-2074,29	376,00
-2064,57	398,00
-2054,86	461,00
-2045,17	555,00
-2035,49	430,00
-2025,82	352,00
-2016,17	403,00
-2006,53	298,00
-1996,91	398,00
-1987,29	353,00
-1977,69	377,00
-1968,11	305,00
-1958,53	311,00
-1948,97	368,00
-1939,42	360,00
-1929,89	363,00
-1920,37	380,00
-1910,86	345,00
-1901,36	404,00
-1891,88	403,00
-1882,41	359,00
-1872,95	429,00
-1863,51	457,00
-1854,08	338,00
-1844,66	436,00
-1835,26	391,00
-1825,86	480,00
-1816,48	376,00
-1807,11	487,00
-1797,76	388,00
-1788,42	381,00
-1779,09	372,00
-1769,77	403,00
-1760,47	454,00
-1751,17	356,00
-1741,89	427,00
-1732,63	413,00
-1723,37	438,00
-1714,13	458,00
-1704,90	380,00
-1695,68	510,00
-1686,48	308,00
-1677,29	369,00
-1668,11	482,00
-1658,94	387,00
-1649,78	317,00
-1640,64	488,00
-1631,51	412,00
-1622,39	469,00
-1613,28	415,00
-1604,19	459,00
-1595,10	396,00
-1586,03	315,00
-1576,97	437,00
-1567,93	437,00
-1558,89	380,00
-1549,87	420,00
-1540,86	414,00
-1531,86	342,00
-1522,87	345,00
-1513,90	434,00
-1504,93	432,00
-1495,98	420,00
-1487,04	450,00
-1478,12	306,00
-1469,20	395,00
-1460,30	365,00
-1451,40	537,00
-1442,52	471,00
-1433,65	548,00
-1424,80	391,00
-1415,95	308,00
-1407,12	557,00
-1398,30	434,00
-1389,48	467,00
-1380,69	348,00
-1371,90	389,00
-1363,12	428,00
-1354,36	487,00
-1345,60	385,00
-1336,86	344,00
-1328,13	460,00
-1319,41	432,00
-1310,70	465,00
-1302,01	355,00
-1293,32	383,00
-1284,65	485,00
-1275,99	493,00
-1267,33	508,00
-1258,69	422,00
-1250,06	340,00
-1241,45	375,00
-1232,84	500,00
-1224,25	379,00
-1215,66	417,00
-1207,09	456,00
-1198,53	414,00
-1189,97	414,00
-1181,43	361,00
-1172,91	377,00
-1164,39	497,00
-1155,88	345,00
-1147,38	299,00
-1138,90	456,00
-1130,43	336,00
-1121,96	406,00
-1113,51	403,00
-1105,07	438,00
-1096,64	417,00
-1088,22	425,00
-1079,81	520,00
-1071,41	424,00
-1063,02	351,00
-1054,65	449,00
-1046,28	356,00
-1037,92	391,00
-1029,58	423,00
-1021,24	417,00
-1012,92	596,00
-1004,61	417,00
-996,30	492,00
-988,01	314,00
-979,73	450,00
-971,46	385,00
-963,20	424,00
-954,95	315,00
-946,71	365,00
-938,48	457,00
-930,26	408,00
-922,06	379,00
-913,86	416,00
-905,67	400,00
-897,49	416,00
-889,33	263,00
-881,17	420,00
-873,02	483,00
-864,89	340,00
-856,76	375,00
-848,65	378,00
-840,54	462,00
-832,45	478,00
-824,36	318,00
-816,29	396,00
-808,22	411,00
-800,17	486,00
-792,12	396,00
-784,09	379,00
-776,06	361,00
-768,05	427,00
-760,04	343,00
-752,05	369,00
-744,07	318,00
-736,09	370,00
-728,13	287,00
-720,17	367,00
-712,23	463,00
-704,29	365,00
-696,37	385,00
-688,45	507,00
-680,55	396,00
-672,65	394,00
-664,77	407,00
-656,89	457,00
-649,03	344,00
-641,17	469,00
-633,32	470,00
-625,49	464,00
-617,66	353,00
-609,84	504,00
-602,03	371,00
-594,23	480,00
-586,45	434,00
-578,67	322,00
-570,90	463,00
-563,14	404,00
-555,39	409,00
-547,65	378,00
-539,91	340,00
-532,19	435,00
-524,48	348,00
-516,78	387,00
-509,08	480,00
-501,40	410,00
-493,72	389,00
-486,06	437,00
-478,40	504,00
-470,76	327,00
-463,12	372,00
-455,49	405,00
-447,87	376,00
-440,26	454,00
-432,66	343,00
-425,07	454,00
-417,49	525,00
-409,92	254,00
-402,35	381,00
-394,80	319,00
-387,25	382,00
-379,72	390,00
-372,19	424,00
-364,67	470,00
-357,17	378,00
-349,67	478,00
-342,18	405,00
-334,69	436,00
-327,22	462,00
-319,76	459,00
-312,30	415,00
-304,86	354,00
-297,42	447,00
-290,00	432,00
-282,58	476,00
-275,17	443,00
-267,77	519,00
-260,37	452,00
-252,99	547,00
-245,62	582,00
-238,25	484,00
-230,90	459,00
-223,55	496,00
-216,21	425,00
-208,88	597,00
-201,56	501,00
-194,25	571,00
-186,94	556,00
-179,65	568,00
-172,36	666,00
-165,08	636,00
-157,81	690,00
-150,55	752,00
-143,30	748,00
-136,06	720,00
-128,82	769,00
-121,60	824,00
-114,38	944,00
-107,17	1045,00
-99,97	1135,00
-92,78	1213,00
-85,60	1310,00
-78,42	1512,00
-71,25	1604,00
-64,10	1865,00
-56,95	2063,00
-49,81	2378,00
-42,67	2918,00
-35,55	3484,00
-28,43	4601,00
-21,33	7284,00
-14,23	22874,00
-7,14	57498,00
-0,05	57284,00
7,02	57012,00
14,09	57319,00
21,14	20301,00
28,19	8727,00
35,23	5686,00
42,27	4434,00
49,29	3710,00
56,31	3033,00
63,32	2733,00
70,32	2407,00
77,31	2107,00
84,29	1894,00
91,27	1737,00
98,23	1650,00
105,19	1590,00
112,14	1852,00
119,09	3106,00
126,02	5153,00
132,95	6293,00
139,87	6537,00
146,78	6817,00
153,68	6691,00
160,58	6714,00
167,46	6637,00
174,34	6658,00
181,21	6686,00
188,08	6615,00
194,93	6626,00
201,78	6686,00
208,62	6634,00
215,45	6757,00
222,27	6743,00
229,09	6769,00
235,90	6648,00
242,70	6665,00
249,49	6698,00
256,27	6608,00
263,05	6493,00
269,82	6468,00
276,58	6543,00
283,33	6459,00
290,08	6464,00
296,82	6335,00
303,55	6222,00
310,27	6305,00
316,98	6307,00
323,69	6148,00
330,39	6213,00
337,08	6204,00
343,76	6226,00
350,44	6260,00
357,11	6100,00
363,77	6154,00
370,42	6154,00
377,07	6205,00
383,71	6148,00
390,34	6087,00
396,96	6159,00
403,58	6256,00
410,19	6334,00
416,79	6387,00
423,38	6443,00
429,97	6203,00
436,55	5976,00
443,12	6011,00
449,68	5979,00
456,24	5876,00
462,79	6017,00
469,33	5895,00
475,86	5905,00
482,39	5904,00
488,91	5921,00
495,42	5815,00
501,93	5801,00
508,42	5689,00
514,91	5687,00
521,40	5641,00
527,87	5682,00
534,34	5636,00
540,80	5557,00
547,25	5775,00
553,70	5761,00
560,14	5655,00
566,57	5689,00
573,00	5609,00
579,41	5811,00
585,83	5488,00
592,23	5590,00
598,62	5586,00
605,01	5480,00
611,40	5664,00
617,77	5475,00
624,14	5483,00
630,50	5458,00
636,85	5490,00
643,20	5470,00
649,54	5448,00
655,87	5437,00
662,20	5478,00
668,52	5378,00
674,83	5425,00
681,13	5256,00
687,43	5402,00
693,72	5175,00
700,00	5209,00
706,28	5262,00
712,55	5177,00
718,81	5329,00
725,07	5302,00
731,32	5380,00
737,56	5327,00
743,79	5242,00
750,02	5279,00
756,24	5154,00
762,46	5128,00
768,67	5366,00
774,87	5312,00
781,06	5085,00
787,25	5132,00
793,43	5193,00
799,60	5215,00
805,77	5274,00
811,93	5182,00
818,08	5199,00
824,23	5251,00
830,37	5332,00
836,50	5253,00
842,63	5253,00
848,75	5174,00
854,87	5045,00
860,97	5163,00
867,07	5136,00
873,17	5123,00
879,25	5093,00
885,33	5144,00
891,41	5059,00
897,47	4988,00
903,53	4914,00
909,59	5013,00
915,63	4949,00
921,67	4903,00
927,71	4875,00
933,74	4954,00
939,76	4812,00
945,77	4879,00
951,78	4964,00
957,78	4791,00
963,78	4901,00
969,77	4906,00
975,75	4836,00
981,72	4794,00
987,69	5539,00
993,66	4956,00
999,61	4799,00
1005,56	4820,00
1011,51	4789,00
1017,44	4921,00
1023,37	4840,00
1029,30	4791,00
1035,22	4976,00
1041,13	4825,00
1047,03	4881,00
1052,93	4981,00
1058,83	5237,00
1064,71	5290,00
1070,59	5251,00
1076,47	5045,00
1082,33	5004,00
1088,20	4995,00
1094,05	4828,00
1099,90	4728,00
1105,74	4796,00
1111,58	4714,00
1117,41	4728,00
1123,23	4887,00
1129,05	5069,00
1134,86	5032,00
1140,67	4881,00
1146,47	4678,00
1152,26	4755,00
1158,05	4690,00
1163,83	4603,00
1169,60	4628,00
1175,37	4636,00
1181,13	4630,00
1186,89	4525,00
1192,64	4549,00
1198,38	4743,00
1204,12	4551,00
1209,85	4586,00
1215,58	4510,00
1221,30	4575,00
1227,02	4656,00
1232,72	4523,00
1238,43	4577,00
1244,12	4605,00
1249,81	4533,00
1255,50	4680,00
1261,17	4638,00
1266,85	4681,00
1272,51	4592,00
1278,17	4728,00
1283,83	4748,00
1289,47	4971,00
1295,12	5294,00
1300,75	5162,00
1306,38	5073,00
1312,01	4944,00
1317,63	4870,00
1323,24	4611,00
1328,85	4688,00
1334,45	4619,00
1340,04	4651,00
1345,63	4599,00
1351,22	4659,00
1356,80	4658,00
1362,37	4771,00
1367,93	4679,00
1373,49	4782,00
1379,05	4644,00
1384,60	4499,00
1390,14	4689,00
1395,68	4666,00
1401,21	4679,00
1406,74	4792,00
1412,26	4780,00
1417,77	5047,00
1423,28	4845,00
1428,78	5065,00
1434,28	5273,00
1439,77	5397,00
1445,26	5394,00
1450,74	5412,00
1456,22	5112,00
1461,68	5159,00
1467,15	5015,00
1472,61	4808,00
1478,06	4773,00
1483,51	4569,00
1488,95	4472,00
1494,38	4499,00
1499,81	4404,00
1505,24	4320,00
1510,65	4230,00
1516,07	4333,00
1521,48	4337,00
1526,88	4251,00
1532,27	4328,00
1537,67	4230,00
1543,05	4186,00
1548,43	4124,00
1553,81	4117,00
1559,18	4054,00
1564,54	4189,00
1569,90	4042,00
1575,25	4052,00
1580,60	3988,00
1585,94	4088,00
1591,28	4051,00
1596,61	3962,00
1601,93	4028,00
1607,25	4072,00
1612,57	3926,00
1617,88	3966,00
1623,18	4016,00
1628,48	3978,00
1633,77	3828,00
1639,06	4058,00
1644,34	3911,00
1649,62	3865,00
1654,89	3876,00
1660,16	3777,00
1665,42	3917,00
1670,67	3794,00
1675,92	3559,00
1681,17	3783,00
1686,41	3748,00
1691,64	3734,00
1696,87	3768,00
1702,10	3664,00
1707,32	3657,00
1712,53	3563,00
1717,74	3592,00
1722,94	3662,00
1728,14	3588,00
1733,33	3559,00
1738,52	3447,00
1743,70	3558,00
1748,88	3469,00
1754,05	3445,00
1759,22	3436,00
1764,38	3088,00
1769,53	3394,00
1774,69	3452,00
1779,83	3270,00
1784,97	3482,00
1790,11	3300,00
1795,24	3306,00
1800,36	3351,00
1805,48	3330,00
1810,60	3378,00
1815,71	3286,00
1820,82	3334,00
1825,92	3351,00
1831,01	3221,00
1836,10	3227,00
1841,19	3348,00
1846,26	3166,00
1851,34	3277,00
1856,41	3307,00
1861,47	3180,00
1866,53	3278,00
1871,59	3208,00
1876,64	3200,00
1881,68	3200,00
1886,72	3099,00
1891,76	3107,00
1896,79	3156,00
1901,81	3080,00
1906,83	3029,00
1911,85	2977,00
1916,86	3061,00
1921,86	2973,00
1926,86	3041,00
1931,86	3135,00
1936,85	2993,00
1941,83	2825,00
1946,81	2903,00
1951,79	2740,00
1956,76	2885,00
1961,72	2758,00
1966,68	2850,00
1971,64	2769,00
1976,59	2825,00
1981,54	2815,00
1986,48	2787,00
1991,42	2746,00
1996,35	2909,00
2001,27	2612,00
2006,20	2764,00
2011,11	2766,00
2016,03	2830,00
2020,93	2644,00
2025,84	2742,00
2030,73	2669,00
2035,63	2634,00
2040,52	2738,00
2045,40	2706,00
2050,28	2736,00
2055,15	2649,00
2060,02	2570,00
2064,89	2643,00
2069,75	2634,00
2074,60	2640,00
2079,46	2487,00
2084,30	2476,00
2089,14	2497,00
2093,98	2537,00
2098,81	2528,00
2103,64	2560,00
2108,46	2672,00
2113,28	2663,00
2118,09	2583,00
2122,90	2588,00
2127,70	2553,00
2132,50	2533,00
2137,30	2453,00
2142,09	2498,00
2146,87	2393,00
2151,66	2454,00
2156,43	2451,00
2161,20	2469,00
2165,97	2516,00
2170,73	2404,00
2175,49	2509,00
2180,24	2463,00
2184,99	2506,00
2189,74	2610,00
2194,48	2433,00
2199,21	2457,00
2203,94	2470,00
2208,67	2315,00
2213,39	2278,00
2218,11	2364,00
2222,82	2292,00
2227,53	2336,00
2232,23	2283,00
2236,93	2323,00
2241,63	2176,00
2246,32	2309,00
2251,00	2260,00
2255,68	2233,00
2260,36	2165,00
2265,03	2296,00
2269,70	2246,00
2274,36	2175,00
2279,02	2258,00
2283,68	2112,00
2288,33	2235,00
2292,97	2258,00
2297,61	2145,00
2302,25	2160,00
2306,88	2066,00
2311,51	2091,00
2316,14	2124,00
2320,75	2104,00
2325,37	2042,00
2329,98	2187,00
2334,59	2124,00
2339,19	2051,00
2343,79	1962,00
2348,38	2025,00
2352,97	1991,00
2357,55	2034,00
2362,13	2065,00
2366,71	1987,00
2371,28	2060,00
2375,85	1913,00
2380,41	2028,00
2384,97	1922,00
2389,52	1970,00
2394,07	1975,00
2398,62	1912,00
2403,16	2002,00
2407,70	1839,00
2412,23	1919,00
2416,76	2039,00
2421,29	2022,00
2425,81	1950,00
2430,32	1950,00
2434,84	1834,00
2439,34	1837,00
2443,85	1966,00
2448,35	1856,00
2452,84	1809,00
2457,33	1832,00
2461,82	1789,00
2466,30	1692,00
2470,78	1840,00
2475,25	1806,00
2479,72	1792,00
2484,19	1803,00
2488,65	1775,00
2493,11	1729,00
2497,56	1870,00
2502,01	1656,00
2506,46	1752,00
2510,90	1705,00
2515,34	1677,00
2519,77	1660,00
2524,20	1677,00
2528,62	1728,00
2533,04	1740,00
2537,46	1666,00
2541,87	1763,00
2546,28	1719,00
2550,68	1771,00
2555,08	1713,00
2559,48	1604,00
2563,87	1564,00
2568,26	1627,00
2572,64	1687,00
2577,02	1598,00
2581,40	1562,00
2585,77	1555,00
2590,14	1504,00
2594,50	1521,00
2598,86	1547,00
2603,22	1504,00
2607,57	1470,00
2611,92	1495,00
2616,26	1638,00
2620,60	1608,00
2624,94	1559,00
2629,27	1506,00
2633,60	1509,00
2637,92	1588,00
2642,24	1608,00
2646,56	1426,00
2650,87	1465,00
2655,18	1422,00
2659,48	1426,00
2663,78	1465,00
2668,08	1399,00
2672,37	1494,00
2676,66	1426,00
2680,95	1401,00
2685,23	1510,00
2689,50	1475,00
2693,78	1463,00
2698,05	1423,00
2702,31	1425,00
2706,57	1568,00
2710,83	1501,00
2715,08	1623,00
2719,33	1539,00
2723,58	1590,00
2727,82	1567,00
2732,06	1475,00
2736,29	1447,00
2740,53	1451,00
2744,75	1430,00
2748,97	1406,00
2753,19	1442,00
2757,41	1451,00
2761,62	1497,00
2765,83	1456,00
2770,03	1416,00
2774,23	1515,00
2778,43	1399,00
2782,62	1492,00
2786,81	1413,00
2791,00	1407,00
2795,18	1433,00
2799,35	1493,00
2803,53	1365,00
2807,70	1480,00
2811,86	1467,00
2816,03	1487,00
2820,19	1475,00
2824,34	1459,00
2828,49	1590,00
2832,64	1688,00
2836,78	1845,00
2840,92	1810,00
2845,06	2161,00
2849,19	2325,00
2853,32	2313,00
2857,45	2302,00
2861,57	2362,00
2865,69	2288,00
2869,80	2190,00
2873,91	2359,00
2878,02	2265,00
2882,12	2401,00
2886,22	2414,00
2890,32	2373,00
2894,41	2283,00
2898,50	2198,00
2902,58	2225,00
2906,67	1996,00
2910,74	1932,00
2914,82	1882,00
2918,89	1977,00
2922,96	1762,00
2927,02	1743,00
2931,08	1693,00
2935,13	1685,00
2939,19	1590,00
2943,24	1553,00
2947,28	1574,00
2951,32	1421,00
2955,36	1336,00
2959,40	1418,00
2963,43	1353,00
2967,46	1289,00
2971,48	1247,00
2975,50	1162,00
2979,52	1165,00
2983,53	1206,00
2987,54	1068,00
2991,55	1188,00
2995,55	1170,00
2999,55	1083,00
3003,54	1049,00
3007,54	1112,00
3011,53	1095,00
3015,51	977,00
3019,49	1093,00
3023,47	974,00
3027,45	1086,00
3031,42	1022,00
3035,39	955,00
3039,35	1013,00
3043,31	1024,00
3047,27	1032,00
3051,22	949,00
3055,17	1000,00
3059,12	1014,00
3063,06	983,00
3067,00	913,00
3070,94	953,00
3074,87	965,00
3078,80	970,00
3082,73	987,00
3086,65	861,00
3090,57	985,00
3094,49	879,00
3098,40	906,00
3102,31	915,00
3106,22	956,00
3110,12	870,00
3114,02	709,00
3117,92	802,00
3121,81	832,00
3125,70	860,00
3129,58	861,00
3133,47	694,00
3137,34	926,00
3141,22	895,00
3145,09	851,00
3148,96	895,00
3152,83	905,00
3156,69	857,00
3160,55	837,00
3164,40	868,00
3168,26	844,00
3172,10	885,00
3175,95	840,00
3179,79	852,00
3183,63	851,00
3187,47	804,00
3191,30	826,00
3195,13	780,00
3198,95	706,00
3202,78	785,00
3206,60	696,00
3210,41	773,00
3214,23	784,00
3218,03	785,00
3221,84	772,00
3225,64	756,00
3229,44	756,00
3233,24	778,00
3237,03	716,00
3240,82	756,00
3244,61	644,00
3248,39	740,00
3252,17	677,00
3255,95	752,00
3259,72	718,00
3263,49	767,00
3267,26	683,00
3271,03	774,00
3274,79	767,00
3278,54	739,00
3282,30	592,00
3286,05	738,00
3289,80	665,00
3293,54	681,00
3297,29	737,00
3301,02	682,00
3304,76	650,00
3308,49	712,00
3312,22	622,00
3315,95	610,00
3319,67	587,00
3323,39	677,00
3327,10	752,00
3330,82	592,00
3334,53	656,00
3338,24	682,00
3341,94	625,00
3345,64	605,00
3349,34	588,00
3353,03	630,00
3356,72	600,00
3360,41	697,00
3364,10	671,00
3367,78	627,00
3371,46	622,00
3375,13	526,00
3378,81	649,00
3382,48	596,00
3386,14	623,00
3389,81	729,00
3393,47	658,00
3397,12	683,00
3400,78	591,00
3404,43	624,00
3408,08	662,00
3411,72	513,00
3415,36	534,00
3419,00	568,00
3422,64	576,00
3426,27	574,00
3429,90	539,00
3433,53	565,00
3437,15	580,00
3440,77	475,00
3444,39	523,00
3448,00	586,00
3451,62	595,00
3455,22	650,00
3458,83	481,00
3462,43	576,00
3466,03	633,00
3469,63	461,00
3473,22	596,00
3476,81	444,00
3480,40	584,00
3483,99	522,00
3487,57	491,00
3491,15	479,00
3494,72	572,00
3498,29	615,00
3501,86	488,00
3505,43	445,00
3508,99	510,00
3512,56	432,00
3516,11	526,00
3519,67	473,00
3523,22	465,00
3526,77	426,00
3530,32	633,00
3533,86	581,00
3537,40	569,00
3540,94	528,00
3544,47	517,00
3548,00	462,00
3551,53	539,00
3555,06	471,00
3558,58	450,00
3562,10	522,00
3565,62	374,00
3569,13	510,00
3572,64	552,00
3576,15	447,00
3579,66	496,00
3583,16	481,00
3586,66	510,00
3590,16	456,00
3593,65	422,00
3597,14	422,00
3600,63	520,00
3604,11	424,00
3607,60	444,00
3611,08	545,00
3614,55	517,00
3618,03	465,00
3621,50	344,00
3624,97	395,00
3628,43	323,00
3631,90	424,00
3635,36	330,00
3638,81	437,00
3642,27	400,00
3645,72	383,00
3649,17	379,00
3652,61	404,00
3656,06	392,00
3659,50	454,00
3662,93	399,00
3666,37	462,00
3669,80	536,00
3673,23	442,00
3676,65	411,00
3680,08	512,00
3683,50	383,00
3686,92	332,00
3690,33	408,00
3693,74	441,00
3697,15	436,00
3700,56	427,00
3703,96	359,00
3707,36	325,00
3710,76	364,00
3714,16	395,00
3717,55	431,00
3720,94	248,00
3724,33	366,00
3727,71	388,00
3731,10	400,00
3734,48	349,00
3737,85	290,00
3741,23	377,00
3744,60	362,00
3747,97	267,00
3751,33	392,00
3754,69	288,00
3758,05	311,00
3761,41	349,00
3764,77	327,00
3768,12	343,00
3771,47	321,00
3774,82	334,00
3778,16	-4,00
3781,50	9,00
3784,84	3,00
3788,18	7,00
>>>>>End Processed Spectral Data<<<<<
