SpectraSuite Data File
++++++++++++++++++++++++++++++++++++
Date: Mon Jan 05 16:29:19 ICT 2026
User: Administrator
Dark Spectrum Present: Yes
Reference Spectrum Present: No
Number of Sampled Component Spectra: 1
Spectrometers: MAYP113682
Integration Time (usec): 3000000 (MAYP113682)
Spectra Averaged: 1 (MAYP113682)
Boxcar Smoothing: 0 (MAYP113682)
Correct for Electrical Dark: No (MAYP113682)
Strobe/Lamp Enabled: No (MAYP113682)
Correct for Detector Non-linearity: No (MAYP113682)
Correct for Stray Light: No (MAYP113682)
Number of Pixels in Processed Spectrum: 2068
>>>>>Begin Processed Spectral Data<<<<<
-37534,58	28,00
-37414,56	8,00
-37295,11	6,00
-37176,24	5,00
-37057,95	456,00
-36940,22	515,00
-36823,05	469,00
-36706,45	581,00
-36590,40	588,00
-36474,90	509,00
-36359,95	612,00
-36245,55	593,00
-36131,68	545,00
-36018,35	527,00
-35905,55	571,00
-35793,29	634,00
-35681,54	543,00
-35570,32	549,00
-35459,62	560,00
-35349,43	667,00
-35239,75	585,00
-35130,58	532,00
-35021,91	686,00
-34913,74	562,00
-34806,07	618,00
-34698,89	699,00
-34592,20	567,00
-34486,00	618,00
-34380,28	625,00
-34275,04	519,00
-34170,27	591,00
-34065,98	708,00
-33962,16	545,00
-33858,81	688,00
-33755,92	620,00
-33653,49	754,00
-33551,52	713,00
-33450,01	713,00
-33348,94	607,00
-33248,33	603,00
-33148,16	617,00
-33048,43	673,00
-32949,14	823,00
-32850,29	669,00
-32751,87	583,00
-32653,89	710,00
-32556,33	649,00
-32459,20	656,00
-32362,49	641,00
-32266,19	629,00
-32170,32	548,00
-32074,86	646,00
-31979,82	709,00
-31885,18	728,00
-31790,95	633,00
-31697,12	668,00
-31603,69	781,00
-31510,67	710,00
-31418,04	696,00
-31325,80	660,00
-31233,95	612,00
-31142,49	622,00
-31051,42	629,00
-30960,73	726,00
-30870,43	794,00
-30780,50	756,00
-30690,95	695,00
-30601,77	773,00
-30512,97	665,00
-30424,53	684,00
-30336,46	651,00
-30248,76	664,00
-30161,42	740,00
-30074,44	616,00
-29987,81	779,00
-29901,55	691,00
-29815,63	609,00
-29730,07	763,00
-29644,86	710,00
-29560,00	654,00
-29475,48	665,00
-29391,30	746,00
-29307,47	584,00
-29223,97	691,00
-29140,81	721,00
-29057,99	712,00
-28975,50	614,00
-28893,34	764,00
-28811,51	676,00
-28730,00	712,00
-28648,82	656,00
-28567,97	747,00
-28487,43	676,00
-28407,21	646,00
-28327,32	661,00
-28247,73	828,00
-28168,46	645,00
-28089,50	740,00
-28010,85	628,00
-27932,51	670,00
-27854,48	660,00
-27776,75	579,00
-27699,32	648,00
-27622,19	628,00
-27545,37	731,00
-27468,84	660,00
-27392,60	722,00
-27316,66	685,00
-27241,01	672,00
-27165,66	682,00
-27090,59	561,00
-27015,81	729,00
-26941,31	683,00
-26867,10	609,00
-26793,17	734,00
-26719,52	691,00
-26646,15	628,00
-26573,06	669,00
-26500,24	582,00
-26427,70	663,00
-26355,43	576,00
-26283,43	645,00
-26211,71	684,00
-26140,25	716,00
-26069,06	770,00
-25998,13	593,00
-25927,46	606,00
-25857,06	607,00
-25786,92	639,00
-25717,04	603,00
-25647,42	654,00
-25578,05	552,00
-25508,94	576,00
-25440,09	679,00
-25371,48	672,00
-25303,13	702,00
-25235,02	623,00
-25167,17	623,00
-25099,56	673,00
-25032,19	605,00
-24965,07	634,00
-24898,20	566,00
-24831,56	599,00
-24765,17	643,00
-24699,01	616,00
-24633,10	658,00
-24567,41	663,00
-24501,97	636,00
-24436,75	620,00
-24371,77	633,00
-24307,03	649,00
-24242,51	638,00
-24178,22	589,00
-24114,16	631,00
-24050,32	665,00
-23986,71	611,00
-23923,32	644,00
-23860,16	619,00
-23797,22	667,00
-23734,50	683,00
-23672,00	623,00
-23609,71	643,00
-23547,65	682,00
-23485,80	664,00
-23424,16	542,00
-23362,74	795,00
-23301,53	645,00
-23240,54	607,00
-23179,75	578,00
-23119,17	549,00
-23058,80	621,00
-22998,64	684,00
-22938,68	620,00
-22878,93	640,00
-22819,39	570,00
-22760,04	635,00
-22700,90	552,00
-22641,96	688,00
-22583,22	575,00
-22524,68	698,00
-22466,33	579,00
-22408,19	688,00
-22350,23	608,00
-22292,48	628,00
-22234,92	675,00
-22177,55	668,00
-22120,37	718,00
-22063,38	597,00
-22006,58	635,00
-21949,98	621,00
-21893,56	557,00
-21837,33	686,00
-21781,28	619,00
-21725,42	706,00
-21669,74	775,00
-21614,25	624,00
-21558,94	735,00
-21503,81	748,00
-21448,86	624,00
-21394,10	590,00
-21339,51	591,00
-21285,10	608,00
-21230,86	559,00
-21176,81	583,00
-21122,93	618,00
-21069,22	516,00
-21015,69	650,00
-20962,33	665,00
-20909,14	606,00
-20856,13	717,00
-20803,28	689,00
-20750,61	636,00
-20698,10	606,00
-20645,76	536,00
-20593,59	755,00
-20541,59	742,00
-20489,75	709,00
-20438,07	543,00
-20386,56	676,00
-20335,22	617,00
-20284,03	590,00
-20233,01	609,00
-20182,15	589,00
-20131,45	610,00
-20080,91	575,00
-20030,52	648,00
-19980,30	588,00
-19930,23	586,00
-19880,32	742,00
-19830,56	687,00
-19780,96	646,00
-19731,52	601,00
-19682,23	664,00
-19633,09	529,00
-19584,10	634,00
-19535,26	595,00
-19486,58	759,00
-19438,04	645,00
-19389,66	674,00
-19341,42	566,00
-19293,33	637,00
-19245,39	627,00
-19197,60	662,00
-19149,95	709,00
-19102,45	675,00
-19055,09	573,00
-19007,87	648,00
-18960,80	697,00
-18913,87	580,00
-18867,09	594,00
-18820,44	684,00
-18773,94	619,00
-18727,57	683,00
-18681,35	504,00
-18635,26	627,00
-18589,31	537,00
-18543,50	614,00
-18497,83	644,00
-18452,29	622,00
-18406,89	595,00
-18361,63	659,00
-18316,50	656,00
-18271,50	553,00
-18226,63	730,00
-18181,90	674,00
-18137,30	687,00
-18092,84	681,00
-18048,50	617,00
-18004,29	657,00
-17960,22	555,00
-17916,27	652,00
-17872,45	712,00
-17828,76	726,00
-17785,20	654,00
-17741,77	700,00
-17698,46	726,00
-17655,28	597,00
-17612,22	645,00
-17569,29	521,00
-17526,48	675,00
-17483,79	620,00
-17441,23	579,00
-17398,79	605,00
-17356,48	669,00
-17314,28	685,00
-17272,21	573,00
-17230,26	606,00
-17188,42	607,00
-17146,71	691,00
-17105,12	669,00
-17063,64	664,00
-17022,28	602,00
-16981,04	585,00
-16939,92	724,00
-16898,91	808,00
-16858,02	583,00
-16817,25	602,00
-16776,59	552,00
-16736,04	603,00
-16695,61	658,00
-16655,29	582,00
-16615,09	611,00
-16574,99	675,00
-16535,01	607,00
-16495,15	722,00
-16455,39	657,00
-16415,74	639,00
-16376,21	663,00
-16336,78	639,00
-16297,46	585,00
-16258,26	597,00
-16219,16	639,00
-16180,17	653,00
-16141,28	692,00
-16102,51	676,00
-16063,84	551,00
-16025,27	662,00
-15986,82	607,00
-15948,46	648,00
-15910,22	660,00
-15872,07	613,00
-15834,04	681,00
-15796,10	676,00
-15758,27	764,00
-15720,54	692,00
-15682,91	609,00
-15645,39	781,00
-15607,97	719,00
-15570,64	581,00
-15533,42	719,00
-15496,30	631,00
-15459,28	660,00
-15422,36	666,00
-15385,54	548,00
-15348,82	709,00
-15312,19	655,00
-15275,66	560,00
-15239,23	677,00
-15202,90	586,00
-15166,67	659,00
-15130,53	709,00
-15094,48	623,00
-15058,54	636,00
-15022,68	598,00
-14986,93	554,00
-14951,26	714,00
-14915,69	688,00
-14880,22	587,00
-14844,84	612,00
-14809,55	661,00
-14774,35	641,00
-14739,25	612,00
-14704,24	615,00
-14669,32	685,00
-14634,49	617,00
-14599,75	637,00
-14565,10	617,00
-14530,55	594,00
-14496,08	754,00
-14461,70	612,00
-14427,41	608,00
-14393,21	546,00
-14359,10	543,00
-14325,07	638,00
-14291,14	638,00
-14257,29	653,00
-14223,52	661,00
-14189,85	783,00
-14156,26	618,00
-14122,76	602,00
-14089,34	531,00
-14056,01	632,00
-14022,76	581,00
-13989,60	598,00
-13956,52	737,00
-13923,53	595,00
-13890,62	571,00
-13857,79	651,00
-13825,05	562,00
-13792,39	522,00
-13759,81	660,00
-13727,31	600,00
-13694,90	613,00
-13662,57	732,00
-13630,31	650,00
-13598,14	651,00
-13566,05	553,00
-13534,05	656,00
-13502,12	585,00
-13470,27	579,00
-13438,50	708,00
-13406,80	610,00
-13375,19	653,00
-13343,66	626,00
-13312,20	619,00
-13280,83	542,00
-13249,53	671,00
-13218,30	514,00
-13187,16	592,00
-13156,09	806,00
-13125,10	646,00
-13094,18	704,00
-13063,34	597,00
-13032,58	586,00
-13001,89	666,00
-12971,28	694,00
-12940,74	658,00
-12910,27	616,00
-12879,88	690,00
-12849,57	671,00
-12819,33	750,00
-12789,16	723,00
-12759,06	591,00
-12729,04	603,00
-12699,09	1625,00
-12669,21	715,00
-12639,41	673,00
-12609,68	577,00
-12580,02	645,00
-12550,43	705,00
-12520,91	571,00
-12491,46	555,00
-12462,08	531,00
-12432,77	638,00
-12403,54	565,00
-12374,37	568,00
-12345,27	687,00
-12316,24	621,00
-12287,29	629,00
-12258,40	550,00
-12229,57	686,00
-12200,82	503,00
-12172,14	708,00
-12143,52	449,00
-12114,97	631,00
-12086,49	635,00
-12058,07	740,00
-12029,73	525,00
-12001,44	716,00
-11973,23	615,00
-11945,08	573,00
-11917,00	685,00
-11888,98	593,00
-11861,03	770,00
-11833,15	650,00
-11805,32	759,00
-11777,57	669,00
-11749,88	678,00
-11722,25	530,00
-11694,69	610,00
-11667,19	653,00
-11639,75	698,00
-11612,38	579,00
-11585,07	659,00
-11557,83	669,00
-11530,65	772,00
-11503,53	587,00
-11476,47	649,00
-11449,48	675,00
-11422,54	777,00
-11395,67	651,00
-11368,86	719,00
-11342,11	616,00
-11315,43	587,00
-11288,80	635,00
-11262,23	638,00
-11235,73	676,00
-11209,28	784,00
-11182,90	635,00
-11156,57	613,00
-11130,31	791,00
-11104,10	689,00
-11077,96	687,00
-11051,87	591,00
-11025,84	609,00
-10999,87	671,00
-10973,96	665,00
-10948,11	617,00
-10922,31	821,00
-10896,58	670,00
-10870,90	716,00
-10845,28	745,00
-10819,71	613,00
-10794,20	732,00
-10768,75	729,00
-10743,36	769,00
-10718,02	611,00
-10692,74	639,00
-10667,52	696,00
-10642,35	696,00
-10617,24	729,00
-10592,18	794,00
-10567,18	743,00
-10542,23	759,00
-10517,34	792,00
-10492,51	768,00
-10467,72	750,00
-10443,00	859,00
-10418,32	839,00
-10393,70	899,00
-10369,14	772,00
-10344,63	803,00
-10320,17	942,00
-10295,77	871,00
-10271,42	905,00
-10247,12	1009,00
-10222,88	1122,00
-10198,68	993,00
-10174,54	1056,00
-10150,46	1101,00
-10126,42	1171,00
-10102,44	1085,00
-10078,51	1177,00
-10054,63	1409,00
-10030,80	1243,00
-10007,03	1396,00
-9983,30	1291,00
-9959,63	1409,00
-9936,01	1455,00
-9912,44	1480,00
-9888,92	1460,00
-9865,44	1490,00
-9842,02	1606,00
-9818,65	1684,00
-9795,33	1455,00
-9772,06	1671,00
-9748,84	1697,00
-9725,67	1866,00
-9702,55	2135,00
-9679,47	2431,00
-9656,45	2554,00
-9633,47	2488,00
-9610,55	2633,00
-9587,67	2763,00
-9564,84	3045,00
-9542,06	3184,00
-9519,32	3472,00
-9496,64	4031,00
-9474,00	4046,00
-9451,41	4419,00
-9428,87	4318,00
-9406,37	4367,00
-9383,92	4011,00
-9361,52	3934,00
-9339,17	4350,00
-9316,86	4831,00
-9294,60	5623,00
-9272,38	6314,00
-9250,21	6928,00
-9228,09	7403,00
-9206,01	7193,00
-9183,98	6615,00
-9162,00	5884,00
-9140,06	5874,00
-9118,16	5818,00
-9096,31	6194,00
-9074,51	6396,00
-9052,75	6931,00
-9031,04	6567,00
-9009,37	6004,00
-8987,74	5443,00
-8966,16	4826,00
-8944,63	4318,00
-8923,14	4153,00
-8901,69	4195,00
-8880,29	4672,00
-8858,93	5113,00
-8837,61	5814,00
-8816,34	6077,00
-8795,11	6069,00
-8773,92	5645,00
-8752,78	5085,00
-8731,68	4544,00
-8710,62	4757,00
-8689,61	4722,00
-8668,63	5267,00
-8647,70	5700,00
-8626,82	5672,00
-8605,97	5525,00
-8585,17	5215,00
-8564,41	4753,00
-8543,69	4357,00
-8523,01	4092,00
-8502,37	4444,00
-8481,78	4565,00
-8461,23	4745,00
-8440,71	5256,00
-8420,24	5616,00
-8399,81	5905,00
-8379,42	5610,00
-8359,08	5592,00
-8338,77	4909,00
-8318,50	4450,00
-8298,27	4240,00
-8278,09	4539,00
-8257,94	4828,00
-8237,83	5279,00
-8217,76	5530,00
-8197,74	5650,00
-8177,75	5271,00
-8157,80	4856,00
-8137,89	4487,00
-8118,02	4252,00
-8098,19	4176,00
-8078,40	4208,00
-8058,65	4314,00
-8038,93	4621,00
-8019,26	4425,00
-7999,62	4352,00
-7980,02	4051,00
-7960,46	3969,00
-7940,94	3788,00
-7921,46	3669,00
-7902,01	3510,00
-7882,60	3594,00
-7863,23	3630,00
-7843,90	3657,00
-7824,61	3957,00
-7805,35	4194,00
-7786,13	4131,00
-7766,95	4068,00
-7747,80	4004,00
-7728,69	3830,00
-7709,62	3714,00
-7690,59	3855,00
-7671,59	4093,00
-7652,63	4122,00
-7633,70	4146,00
-7614,81	4158,00
-7595,96	3614,00
-7577,15	3431,00
-7558,37	3325,00
-7539,62	3518,00
-7520,91	3604,00
-7502,24	3887,00
-7483,60	3877,00
-7465,00	3716,00
-7446,44	3478,00
-7427,91	2867,00
-7409,41	2704,00
-7390,95	2611,00
-7372,53	2434,00
-7354,14	2465,00
-7335,78	2523,00
-7317,46	2604,00
-7299,18	2878,00
-7280,92	3146,00
-7262,71	3554,00
-7244,52	3830,00
-7226,38	3850,00
-7208,26	3672,00
-7190,18	3480,00
-7172,14	3167,00
-7154,12	3171,00
-7136,15	3120,00
-7118,20	3507,00
-7100,29	3537,00
-7082,41	3641,00
-7064,57	3420,00
-7046,76	3267,00
-7028,98	2948,00
-7011,24	2671,00
-6993,53	2233,00
-6975,85	2162,00
-6958,20	1849,00
-6940,59	1798,00
-6923,01	1733,00
-6905,46	2277,00
-6887,94	2491,00
-6870,46	3053,00
-6853,01	3297,00
-6835,59	3103,00
-6818,21	2943,00
-6800,85	2555,00
-6783,53	2177,00
-6766,24	1753,00
-6748,98	1754,00
-6731,76	1563,00
-6714,56	1557,00
-6697,40	1385,00
-6680,26	1481,00
-6663,16	1709,00
-6646,09	2144,00
-6629,05	2463,00
-6612,05	2555,00
-6595,07	2489,00
-6578,13	2453,00
-6561,21	2095,00
-6544,33	1739,00
-6527,47	1319,00
-6510,65	1373,00
-6493,86	1170,00
-6477,10	1251,00
-6460,36	1343,00
-6443,66	1262,00
-6426,99	1228,00
-6410,35	1309,00
-6393,74	1556,00
-6377,16	1522,00
-6360,61	1729,00
-6344,09	1729,00
-6327,59	1887,00
-6311,13	2018,00
-6294,70	1934,00
-6278,29	2118,00
-6261,92	2288,00
-6245,58	2573,00
-6229,26	2527,00
-6212,97	2400,00
-6196,72	1905,00
-6180,49	1569,00
-6164,29	1142,00
-6148,12	1064,00
-6131,98	1054,00
-6115,86	907,00
-6099,78	822,00
-6083,72	766,00
-6067,69	816,00
-6051,69	830,00
-6035,72	1061,00
-6019,78	1089,00
-6003,87	1551,00
-5987,98	1713,00
-5972,12	1914,00
-5956,29	1867,00
-5940,49	1753,00
-5924,71	1561,00
-5908,96	1105,00
-5893,24	1070,00
-5877,55	1065,00
-5861,89	1047,00
-5846,25	973,00
-5830,64	1115,00
-5815,05	1020,00
-5799,50	974,00
-5783,97	1166,00
-5768,47	1266,00
-5752,99	1624,00
-5737,55	1674,00
-5722,12	1907,00
-5706,73	1673,00
-5691,36	1574,00
-5676,02	1273,00
-5660,71	1098,00
-5645,42	1054,00
-5630,16	1141,00
-5614,92	1352,00
-5599,71	1311,00
-5584,53	1460,00
-5569,37	1347,00
-5554,24	2325,00
-5539,14	1215,00
-5524,06	1246,00
-5509,01	1392,00
-5493,98	1406,00
-5478,98	1416,00
-5464,00	1303,00
-5449,05	1087,00
-5434,13	1159,00
-5419,23	975,00
-5404,36	1091,00
-5389,51	1374,00
-5374,69	1590,00
-5359,89	1963,00
-5345,12	2025,00
-5330,37	1998,00
-5315,65	1653,00
-5300,95	1428,00
-5286,28	1307,00
-5271,63	1144,00
-5257,01	1231,00
-5242,41	1209,00
-5227,84	1008,00
-5213,29	1048,00
-5198,76	978,00
-5184,26	865,00
-5169,79	926,00
-5155,33	1107,00
-5140,91	1323,00
-5126,51	1333,00
-5112,13	1416,00
-5097,77	1239,00
-5083,44	1194,00
-5069,13	999,00
-5054,85	1081,00
-5040,59	1275,00
-5026,36	1273,00
-5012,15	1400,00
-4997,96	1275,00
-4983,80	1251,00
-4969,66	974,00
-4955,54	1015,00
-4941,44	1216,00
-4927,37	1472,00
-4913,33	1867,00
-4899,30	1993,00
-4885,30	1898,00
-4871,33	1399,00
-4857,37	1100,00
-4843,44	944,00
-4829,53	1019,00
-4815,65	1117,00
-4801,79	915,00
-4787,95	1274,00
-4774,13	947,00
-4760,34	895,00
-4746,56	905,00
-4732,82	935,00
-4719,09	1181,00
-4705,38	1558,00
-4691,70	1837,00
-4678,04	1910,00
-4664,41	1549,00
-4650,79	1391,00
-4637,20	1038,00
-4623,63	958,00
-4610,08	1214,00
-4596,56	1255,00
-4583,05	1293,00
-4569,57	1071,00
-4556,11	1061,00
-4542,67	826,00
-4529,25	931,00
-4515,86	1195,00
-4502,49	1558,00
-4489,13	1592,00
-4475,80	1559,00
-4462,49	1057,00
-4449,21	995,00
-4435,94	959,00
-4422,70	934,00
-4409,47	1127,00
-4396,27	1272,00
-4383,09	1142,00
-4369,93	913,00
-4356,79	757,00
-4343,67	849,00
-4330,58	1050,00
-4317,50	1130,00
-4304,45	1061,00
-4291,41	1034,00
-4278,40	806,00
-4265,41	815,00
-4252,44	1046,00
-4239,49	1176,00
-4226,55	1201,00
-4213,65	1101,00
-4200,76	924,00
-4187,89	705,00
-4175,04	670,00
-4162,21	733,00
-4149,40	856,00
-4136,61	759,00
-4123,85	730,00
-4111,10	770,00
-4098,37	826,00
-4085,66	768,00
-4072,98	876,00
-4060,31	651,00
-4047,66	890,00
-4035,04	957,00
-4022,43	793,00
-4009,84	786,00
-3997,27	583,00
-3984,72	695,00
-3972,19	770,00
-3959,69	725,00
-3947,20	659,00
-3934,73	594,00
-3922,27	643,00
-3909,84	642,00
-3897,43	752,00
-3885,04	701,00
-3872,67	650,00
-3860,31	630,00
-3847,98	770,00
-3835,66	678,00
-3823,36	638,00
-3811,09	631,00
-3798,83	684,00
-3786,59	678,00
-3774,37	739,00
-3762,17	589,00
-3749,98	637,00
-3737,82	651,00
-3725,67	816,00
-3713,55	595,00
-3701,44	664,00
-3689,35	604,00
-3677,28	721,00
-3665,22	619,00
-3653,19	668,00
-3641,17	629,00
-3629,18	739,00
-3617,20	781,00
-3605,24	637,00
-3593,30	723,00
-3581,37	693,00
-3569,47	634,00
-3557,58	672,00
-3545,71	668,00
-3533,86	755,00
-3522,02	616,00
-3510,21	629,00
-3498,41	726,00
-3486,63	620,00
-3474,87	696,00
-3463,12	637,00
-3451,40	662,00
-3439,69	601,00
-3428,00	564,00
-3416,33	670,00
-3404,67	597,00
-3393,03	664,00
-3381,41	737,00
-3369,81	688,00
-3358,22	762,00
-3346,66	760,00
-3335,10	698,00
-3323,57	652,00
-3312,06	718,00
-3300,56	708,00
-3289,08	603,00
-3277,61	690,00
-3266,16	742,00
-3254,73	631,00
-3243,32	681,00
-3231,92	517,00
-3220,55	736,00
-3209,18	766,00
-3197,84	585,00
-3186,51	576,00
-3175,20	648,00
-3163,90	592,00
-3152,63	723,00
-3141,36	579,00
-3130,12	651,00
-3118,89	652,00
-3107,68	628,00
-3096,49	695,00
-3085,31	613,00
-3074,15	631,00
-3063,00	658,00
-3051,87	600,00
-3040,76	587,00
-3029,67	700,00
-3018,59	865,00
-3007,52	773,00
-2996,48	699,00
-2985,44	673,00
-2974,43	608,00
-2963,43	600,00
-2952,45	713,00
-2941,48	565,00
-2930,53	640,00
-2919,60	568,00
-2908,68	635,00
-2897,78	610,00
-2886,89	739,00
-2876,02	596,00
-2865,17	679,00
-2854,33	698,00
-2843,50	635,00
-2832,70	648,00
-2821,90	543,00
-2811,13	786,00
-2800,37	668,00
-2789,62	521,00
-2778,89	712,00
-2768,18	667,00
-2757,48	670,00
-2746,80	725,00
-2736,13	696,00
-2725,48	738,00
-2714,84	574,00
-2704,22	629,00
-2693,61	701,00
-2683,02	713,00
-2672,45	695,00
-2661,89	655,00
-2651,34	713,00
-2640,81	724,00
-2630,30	718,00
-2619,80	598,00
-2609,31	691,00
-2598,84	645,00
-2588,39	651,00
-2577,95	652,00
-2567,52	532,00
-2557,11	625,00
-2546,71	719,00
-2536,33	739,00
-2525,97	632,00
-2515,62	581,00
-2505,28	709,00
-2494,96	655,00
-2484,65	725,00
-2474,36	954,00
-2464,08	621,00
-2453,82	786,00
-2443,57	653,00
-2433,33	596,00
-2423,11	705,00
-2412,91	732,00
-2402,72	646,00
-2392,54	632,00
-2382,38	665,00
-2372,23	707,00
-2362,09	1375,00
-2351,97	639,00
-2341,87	613,00
-2331,78	678,00
-2321,70	711,00
-2311,64	611,00
-2301,59	664,00
-2291,55	723,00
-2281,53	766,00
-2271,53	584,00
-2261,53	692,00
-2251,55	664,00
-2241,59	689,00
-2231,64	619,00
-2221,70	687,00
-2211,78	672,00
-2201,87	668,00
-2191,97	732,00
-2182,09	663,00
-2172,22	745,00
-2162,37	619,00
-2152,53	539,00
-2142,70	645,00
-2132,89	681,00
-2123,09	761,00
-2113,30	618,00
-2103,53	685,00
-2093,77	703,00
-2084,02	704,00
-2074,29	719,00
-2064,57	607,00
-2054,86	727,00
-2045,17	820,00
-2035,49	683,00
-2025,82	567,00
-2016,17	706,00
-2006,53	693,00
-1996,91	670,00
-1987,29	604,00
-1977,69	719,00
-1968,11	637,00
-1958,53	626,00
-1948,97	663,00
-1939,42	666,00
-1929,89	643,00
-1920,37	701,00
-1910,86	582,00
-1901,36	712,00
-1891,88	698,00
-1882,41	639,00
-1872,95	812,00
-1863,51	684,00
-1854,08	640,00
-1844,66	696,00
-1835,26	781,00
-1825,86	708,00
-1816,48	610,00
-1807,11	803,00
-1797,76	688,00
-1788,42	706,00
-1779,09	700,00
-1769,77	675,00
-1760,47	765,00
-1751,17	575,00
-1741,89	624,00
-1732,63	691,00
-1723,37	733,00
-1714,13	822,00
-1704,90	635,00
-1695,68	735,00
-1686,48	598,00
-1677,29	648,00
-1668,11	762,00
-1658,94	590,00
-1649,78	608,00
-1640,64	627,00
-1631,51	679,00
-1622,39	730,00
-1613,28	653,00
-1604,19	778,00
-1595,10	603,00
-1586,03	613,00
-1576,97	713,00
-1567,93	630,00
-1558,89	776,00
-1549,87	755,00
-1540,86	600,00
-1531,86	645,00
-1522,87	684,00
-1513,90	744,00
-1504,93	670,00
-1495,98	727,00
-1487,04	736,00
-1478,12	626,00
-1469,20	666,00
-1460,30	694,00
-1451,40	700,00
-1442,52	593,00
-1433,65	800,00
-1424,80	635,00
-1415,95	598,00
-1407,12	906,00
-1398,30	731,00
-1389,48	721,00
-1380,69	579,00
-1371,90	665,00
-1363,12	702,00
-1354,36	820,00
-1345,60	641,00
-1336,86	673,00
-1328,13	817,00
-1319,41	717,00
-1310,70	695,00
-1302,01	634,00
-1293,32	534,00
-1284,65	746,00
-1275,99	696,00
-1267,33	744,00
-1258,69	701,00
-1250,06	659,00
-1241,45	643,00
-1232,84	848,00
-1224,25	695,00
-1215,66	710,00
-1207,09	704,00
-1198,53	634,00
-1189,97	674,00
-1181,43	629,00
-1172,91	716,00
-1164,39	696,00
-1155,88	526,00
-1147,38	569,00
-1138,90	694,00
-1130,43	645,00
-1121,96	660,00
-1113,51	704,00
-1105,07	675,00
-1096,64	725,00
-1088,22	757,00
-1079,81	673,00
-1071,41	715,00
-1063,02	630,00
-1054,65	749,00
-1046,28	612,00
-1037,92	657,00
-1029,58	672,00
-1021,24	769,00
-1012,92	898,00
-1004,61	760,00
-996,30	819,00
-988,01	544,00
-979,73	676,00
-971,46	746,00
-963,20	685,00
-954,95	599,00
-946,71	641,00
-938,48	756,00
-930,26	728,00
-922,06	723,00
-913,86	656,00
-905,67	621,00
-897,49	667,00
-889,33	562,00
-881,17	779,00
-873,02	684,00
-864,89	641,00
-856,76	706,00
-848,65	656,00
-840,54	741,00
-832,45	666,00
-824,36	576,00
-816,29	677,00
-808,22	796,00
-800,17	640,00
-792,12	660,00
-784,09	678,00
-776,06	648,00
-768,05	685,00
-760,04	593,00
-752,05	632,00
-744,07	663,00
-736,09	713,00
-728,13	564,00
-720,17	681,00
-712,23	622,00
-704,29	648,00
-696,37	696,00
-688,45	749,00
-680,55	667,00
-672,65	670,00
-664,77	641,00
-656,89	777,00
-649,03	629,00
-641,17	683,00
-633,32	655,00
-625,49	715,00
-617,66	632,00
-609,84	714,00
-602,03	559,00
-594,23	675,00
-586,45	728,00
-578,67	660,00
-570,90	724,00
-563,14	553,00
-555,39	736,00
-547,65	625,00
-539,91	735,00
-532,19	725,00
-524,48	660,00
-516,78	666,00
-509,08	752,00
-501,40	637,00
-493,72	649,00
-486,06	655,00
-478,40	768,00
-470,76	630,00
-463,12	668,00
-455,49	648,00
-447,87	718,00
-440,26	676,00
-432,66	679,00
-425,07	709,00
-417,49	739,00
-409,92	513,00
-402,35	647,00
-394,80	553,00
-387,25	688,00
-379,72	743,00
-372,19	782,00
-364,67	787,00
-357,17	570,00
-349,67	737,00
-342,18	689,00
-334,69	709,00
-327,22	674,00
-319,76	746,00
-312,30	710,00
-304,86	635,00
-297,42	699,00
-290,00	640,00
-282,58	769,00
-275,17	815,00
-267,77	819,00
-260,37	732,00
-252,99	842,00
-245,62	784,00
-238,25	820,00
-230,90	742,00
-223,55	729,00
-216,21	791,00
-208,88	943,00
-201,56	837,00
-194,25	845,00
-186,94	914,00
-179,65	913,00
-172,36	945,00
-165,08	1011,00
-157,81	1048,00
-150,55	1102,00
-143,30	1145,00
-136,06	1144,00
-128,82	1236,00
-121,60	1263,00
-114,38	1423,00
-107,17	1480,00
-99,97	1699,00
-92,78	1752,00
-85,60	1905,00
-78,42	2081,00
-71,25	2232,00
-64,10	2497,00
-56,95	2832,00
-49,81	3253,00
-42,67	4108,00
-35,55	4837,00
-28,43	6284,00
-21,33	9778,00
-14,23	30871,00
-7,14	57498,00
-0,05	57284,00
7,02	57012,00
14,09	57319,00
21,14	26955,00
28,19	11669,00
35,23	7604,00
42,27	6037,00
49,29	4987,00
56,31	4260,00
63,32	3859,00
70,32	3172,00
77,31	2864,00
84,29	2552,00
91,27	2302,00
98,23	2216,00
105,19	2192,00
112,14	2406,00
119,09	3550,00
126,02	5445,00
132,95	6388,00
139,87	6675,00
146,78	6747,00
153,68	6838,00
160,58	6656,00
167,46	6484,00
174,34	6600,00
181,21	6607,00
188,08	6498,00
194,93	6555,00
201,78	6489,00
208,62	6622,00
215,45	6732,00
222,27	6592,00
229,09	6693,00
235,90	6457,00
242,70	6527,00
249,49	6631,00
256,27	6424,00
263,05	6510,00
269,82	6490,00
276,58	6454,00
283,33	6408,00
290,08	6343,00
296,82	6301,00
303,55	6202,00
310,27	6174,00
316,98	6162,00
323,69	6127,00
330,39	6112,00
337,08	6270,00
343,76	6258,00
350,44	6115,00
357,11	6185,00
363,77	6025,00
370,42	6127,00
377,07	6110,00
383,71	6016,00
390,34	6157,00
396,96	6160,00
403,58	6040,00
410,19	6267,00
416,79	6221,00
423,38	6195,00
429,97	6140,00
436,55	5899,00
443,12	5765,00
449,68	5781,00
456,24	5761,00
462,79	5842,00
469,33	5755,00
475,86	5723,00
482,39	5717,00
488,91	5768,00
495,42	5611,00
501,93	5666,00
508,42	5641,00
514,91	5605,00
521,40	5600,00
527,87	5652,00
534,34	5517,00
540,80	5521,00
547,25	5570,00
553,70	5520,00
560,14	5550,00
566,57	5557,00
573,00	5569,00
579,41	5578,00
585,83	5587,00
592,23	5540,00
598,62	5531,00
605,01	5412,00
611,40	5416,00
617,77	5427,00
624,14	5387,00
630,50	5379,00
636,85	5393,00
643,20	5421,00
649,54	5263,00
655,87	5262,00
662,20	5333,00
668,52	5192,00
674,83	5372,00
681,13	5221,00
687,43	5143,00
693,72	5099,00
700,00	4980,00
706,28	5130,00
712,55	5274,00
718,81	5268,00
725,07	5208,00
731,32	5196,00
737,56	5216,00
743,79	5156,00
750,02	5296,00
756,24	4931,00
762,46	5152,00
768,67	5204,00
774,87	5113,00
781,06	5087,00
787,25	5073,00
793,43	5141,00
799,60	5098,00
805,77	5245,00
811,93	5086,00
818,08	5099,00
824,23	5103,00
830,37	5328,00
836,50	5110,00
842,63	5087,00
848,75	5118,00
854,87	5002,00
860,97	4943,00
867,07	5009,00
873,17	5054,00
879,25	4946,00
885,33	5023,00
891,41	5021,00
897,47	4990,00
903,53	4949,00
909,59	4929,00
915,63	4873,00
921,67	4754,00
927,71	4924,00
933,74	4825,00
939,76	4668,00
945,77	4829,00
951,78	4901,00
957,78	4707,00
963,78	4745,00
969,77	4884,00
975,75	4649,00
981,72	4787,00
987,69	5709,00
993,66	4872,00
999,61	4835,00
1005,56	4721,00
1011,51	4865,00
1017,44	4851,00
1023,37	4810,00
1029,30	4743,00
1035,22	4844,00
1041,13	4696,00
1047,03	4900,00
1052,93	4988,00
1058,83	5389,00
1064,71	5461,00
1070,59	5271,00
1076,47	4992,00
1082,33	4979,00
1088,20	4975,00
1094,05	4783,00
1099,90	4622,00
1105,74	4700,00
1111,58	4685,00
1117,41	4777,00
1123,23	5062,00
1129,05	5249,00
1134,86	5177,00
1140,67	4909,00
1146,47	4681,00
1152,26	4752,00
1158,05	4620,00
1163,83	4653,00
1169,60	4846,00
1175,37	4725,00
1181,13	4659,00
1186,89	4556,00
1192,64	4749,00
1198,38	4848,00
1204,12	4552,00
1209,85	4695,00
1215,58	4729,00
1221,30	4666,00
1227,02	4651,00
1232,72	4559,00
1238,43	4557,00
1244,12	4662,00
1249,81	4624,00
1255,50	4787,00
1261,17	4652,00
1266,85	4742,00
1272,51	4687,00
1278,17	4762,00
1283,83	4855,00
1289,47	5156,00
1295,12	5584,00
1300,75	5341,00
1306,38	5368,00
1312,01	4901,00
1317,63	4846,00
1323,24	4806,00
1328,85	4758,00
1334,45	4665,00
1340,04	4708,00
1345,63	4751,00
1351,22	4739,00
1356,80	4762,00
1362,37	4814,00
1367,93	4830,00
1373,49	4882,00
1379,05	4768,00
1384,60	4704,00
1390,14	4786,00
1395,68	4731,00
1401,21	4809,00
1406,74	4823,00
1412,26	4913,00
1417,77	5190,00
1423,28	4978,00
1428,78	5374,00
1434,28	5545,00
1439,77	5724,00
1445,26	5723,00
1450,74	5762,00
1456,22	5475,00
1461,68	5385,00
1467,15	5231,00
1472,61	4963,00
1478,06	4907,00
1483,51	4769,00
1488,95	4667,00
1494,38	4649,00
1499,81	4572,00
1505,24	4516,00
1510,65	4513,00
1516,07	4484,00
1521,48	4474,00
1526,88	4433,00
1532,27	4345,00
1537,67	4303,00
1543,05	4442,00
1548,43	4239,00
1553,81	4529,00
1559,18	4191,00
1564,54	4391,00
1569,90	4201,00
1575,25	4160,00
1580,60	4112,00
1585,94	4290,00
1591,28	4204,00
1596,61	4266,00
1601,93	4163,00
1607,25	4209,00
1612,57	4220,00
1617,88	4255,00
1623,18	4083,00
1628,48	4057,00
1633,77	4058,00
1639,06	4277,00
1644,34	4101,00
1649,62	4071,00
1654,89	4060,00
1660,16	3924,00
1665,42	4118,00
1670,67	3978,00
1675,92	3891,00
1681,17	3863,00
1686,41	3975,00
1691,64	3952,00
1696,87	3971,00
1702,10	3895,00
1707,32	3963,00
1712,53	3733,00
1717,74	3863,00
1722,94	3859,00
1728,14	3871,00
1733,33	3785,00
1738,52	3637,00
1743,70	3815,00
1748,88	3741,00
1754,05	3759,00
1759,22	3575,00
1764,38	2877,00
1769,53	3721,00
1774,69	3625,00
1779,83	3535,00
1784,97	3587,00
1790,11	3603,00
1795,24	3517,00
1800,36	3499,00
1805,48	3548,00
1810,60	3547,00
1815,71	3536,00
1820,82	3443,00
1825,92	3516,00
1831,01	3464,00
1836,10	3557,00
1841,19	3522,00
1846,26	3316,00
1851,34	3481,00
1856,41	3540,00
1861,47	3424,00
1866,53	3463,00
1871,59	3355,00
1876,64	3461,00
1881,68	3360,00
1886,72	3325,00
1891,76	3352,00
1896,79	3265,00
1901,81	3201,00
1906,83	3267,00
1911,85	3145,00
1916,86	3204,00
1921,86	3089,00
1926,86	3192,00
1931,86	3239,00
1936,85	3081,00
1941,83	2975,00
1946,81	3002,00
1951,79	2887,00
1956,76	3146,00
1961,72	2894,00
1966,68	3046,00
1971,64	2993,00
1976,59	3012,00
1981,54	2871,00
1986,48	2999,00
1991,42	2879,00
1996,35	3219,00
2001,27	2879,00
2006,20	2962,00
2011,11	2939,00
2016,03	2898,00
2020,93	2821,00
2025,84	2960,00
2030,73	2820,00
2035,63	2740,00
2040,52	2906,00
2045,40	2844,00
2050,28	2883,00
2055,15	2792,00
2060,02	2649,00
2064,89	2890,00
2069,75	2820,00
2074,60	2860,00
2079,46	2747,00
2084,30	2696,00
2089,14	2766,00
2093,98	2855,00
2098,81	2736,00
2103,64	2752,00
2108,46	2835,00
2113,28	2776,00
2118,09	2771,00
2122,90	2747,00
2127,70	2649,00
2132,50	2757,00
2137,30	2696,00
2142,09	2687,00
2146,87	2578,00
2151,66	2657,00
2156,43	2575,00
2161,20	2602,00
2165,97	2685,00
2170,73	2577,00
2175,49	2673,00
2180,24	2600,00
2184,99	2731,00
2189,74	2798,00
2194,48	2626,00
2199,21	2574,00
2203,94	2517,00
2208,67	2427,00
2213,39	2365,00
2218,11	2548,00
2222,82	2433,00
2227,53	2483,00
2232,23	2531,00
2236,93	2504,00
2241,63	2360,00
2246,32	2576,00
2251,00	2357,00
2255,68	2435,00
2260,36	2421,00
2265,03	2454,00
2269,70	2511,00
2274,36	2312,00
2279,02	2384,00
2283,68	2378,00
2288,33	2366,00
2292,97	2349,00
2297,61	2421,00
2302,25	2324,00
2306,88	2273,00
2311,51	2214,00
2316,14	2250,00
2320,75	2261,00
2325,37	2218,00
2329,98	2244,00
2334,59	2271,00
2339,19	2179,00
2343,79	2098,00
2348,38	2252,00
2352,97	2229,00
2357,55	2072,00
2362,13	2191,00
2366,71	2080,00
2371,28	2227,00
2375,85	2064,00
2380,41	2203,00
2384,97	2061,00
2389,52	2141,00
2394,07	2155,00
2398,62	2053,00
2403,16	2209,00
2407,70	1976,00
2412,23	1978,00
2416,76	2027,00
2421,29	2089,00
2425,81	2089,00
2430,32	2066,00
2434,84	2018,00
2439,34	1926,00
2443,85	2084,00
2448,35	2001,00
2452,84	1839,00
2457,33	1926,00
2461,82	1893,00
2466,30	1905,00
2470,78	1920,00
2475,25	1908,00
2479,72	1931,00
2484,19	1873,00
2488,65	1882,00
2493,11	1856,00
2497,56	1907,00
2502,01	1715,00
2506,46	1984,00
2510,90	1887,00
2515,34	1843,00
2519,77	1848,00
2524,20	1797,00
2528,62	1886,00
2533,04	1813,00
2537,46	1770,00
2541,87	1836,00
2546,28	1698,00
2550,68	1805,00
2555,08	1815,00
2559,48	1757,00
2563,87	1571,00
2568,26	1763,00
2572,64	1751,00
2577,02	1781,00
2581,40	1685,00
2585,77	1693,00
2590,14	1735,00
2594,50	1550,00
2598,86	1681,00
2603,22	1624,00
2607,57	1597,00
2611,92	1595,00
2616,26	1696,00
2620,60	1771,00
2624,94	1655,00
2629,27	1663,00
2633,60	1570,00
2637,92	1789,00
2642,24	1703,00
2646,56	1722,00
2650,87	1480,00
2655,18	1680,00
2659,48	1572,00
2663,78	1530,00
2668,08	1619,00
2672,37	1566,00
2676,66	1578,00
2680,95	1498,00
2685,23	1635,00
2689,50	1619,00
2693,78	1648,00
2698,05	1572,00
2702,31	1617,00
2706,57	1746,00
2710,83	1648,00
2715,08	1761,00
2719,33	1698,00
2723,58	1728,00
2727,82	1689,00
2732,06	1628,00
2736,29	1585,00
2740,53	1645,00
2744,75	1659,00
2748,97	1617,00
2753,19	1612,00
2757,41	1577,00
2761,62	1557,00
2765,83	1580,00
2770,03	1535,00
2774,23	1568,00
2778,43	1397,00
2782,62	1532,00
2786,81	1444,00
2791,00	1540,00
2795,18	1543,00
2799,35	1537,00
2803,53	1551,00
2807,70	1495,00
2811,86	1592,00
2816,03	1701,00
2820,19	1659,00
2824,34	1632,00
2828,49	1662,00
2832,64	1797,00
2836,78	2063,00
2840,92	2018,00
2845,06	2339,00
2849,19	2632,00
2853,32	2655,00
2857,45	2530,00
2861,57	2498,00
2865,69	2552,00
2869,80	2458,00
2873,91	2465,00
2878,02	2640,00
2882,12	2719,00
2886,22	2722,00
2890,32	2639,00
2894,41	2562,00
2898,50	2528,00
2902,58	2412,00
2906,67	2342,00
2910,74	2160,00
2914,82	1991,00
2918,89	2060,00
2922,96	2011,00
2927,02	1851,00
2931,08	1791,00
2935,13	1788,00
2939,19	1776,00
2943,24	1667,00
2947,28	1745,00
2951,32	1491,00
2955,36	1378,00
2959,40	1549,00
2963,43	1415,00
2967,46	1425,00
2971,48	1330,00
2975,50	1322,00
2979,52	1391,00
2983,53	1356,00
2987,54	1213,00
2991,55	1253,00
2995,55	1280,00
2999,55	1200,00
3003,54	1212,00
3007,54	1179,00
3011,53	1214,00
3015,51	1173,00
3019,49	1164,00
3023,47	1082,00
3027,45	1189,00
3031,42	1087,00
3035,39	1125,00
3039,35	1190,00
3043,31	1063,00
3047,27	1105,00
3051,22	1126,00
3055,17	1060,00
3059,12	1078,00
3063,06	1136,00
3067,00	1008,00
3070,94	989,00
3074,87	1189,00
3078,80	1081,00
3082,73	1145,00
3086,65	1068,00
3090,57	1025,00
3094,49	971,00
3098,40	978,00
3102,31	1032,00
3106,22	966,00
3110,12	937,00
3114,02	921,00
3117,92	955,00
3121,81	937,00
3125,70	965,00
3129,58	882,00
3133,47	883,00
3137,34	934,00
3141,22	1043,00
3145,09	970,00
3148,96	979,00
3152,83	913,00
3156,69	1042,00
3160,55	920,00
3164,40	983,00
3168,26	980,00
3172,10	1080,00
3175,95	992,00
3179,79	1006,00
3183,63	1029,00
3187,47	869,00
3191,30	1006,00
3195,13	895,00
3198,95	797,00
3202,78	928,00
3206,60	823,00
3210,41	826,00
3214,23	923,00
3218,03	913,00
3221,84	886,00
3225,64	857,00
3229,44	712,00
3233,24	855,00
3237,03	856,00
3240,82	794,00
3244,61	793,00
3248,39	966,00
3252,17	877,00
3255,95	917,00
3259,72	840,00
3263,49	1040,00
3267,26	826,00
3271,03	914,00
3274,79	837,00
3278,54	854,00
3282,30	778,00
3286,05	901,00
3289,80	839,00
3293,54	857,00
3297,29	831,00
3301,02	724,00
3304,76	805,00
3308,49	923,00
3312,22	781,00
3315,95	784,00
3319,67	786,00
3323,39	844,00
3327,10	870,00
3330,82	775,00
3334,53	835,00
3338,24	826,00
3341,94	776,00
3345,64	831,00
3349,34	819,00
3353,03	838,00
3356,72	799,00
3360,41	786,00
3364,10	652,00
3367,78	774,00
3371,46	703,00
3375,13	830,00
3378,81	864,00
3382,48	750,00
3386,14	782,00
3389,81	811,00
3393,47	804,00
3397,12	865,00
3400,78	781,00
3404,43	864,00
3408,08	797,00
3411,72	754,00
3415,36	739,00
3419,00	798,00
3422,64	722,00
3426,27	761,00
3429,90	758,00
3433,53	674,00
3437,15	731,00
3440,77	664,00
3444,39	728,00
3448,00	725,00
3451,62	732,00
3455,22	774,00
3458,83	650,00
3462,43	744,00
3466,03	760,00
3469,63	664,00
3473,22	683,00
3476,81	706,00
3480,40	818,00
3483,99	741,00
3487,57	674,00
3491,15	729,00
3494,72	778,00
3498,29	759,00
3501,86	649,00
3505,43	691,00
3508,99	752,00
3512,56	534,00
3516,11	752,00
3519,67	641,00
3523,22	749,00
3526,77	669,00
3530,32	817,00
3533,86	770,00
3537,40	750,00
3540,94	675,00
3544,47	719,00
3548,00	610,00
3551,53	763,00
3555,06	606,00
3558,58	752,00
3562,10	665,00
3565,62	622,00
3569,13	684,00
3572,64	831,00
3576,15	554,00
3579,66	660,00
3583,16	683,00
3586,66	664,00
3590,16	661,00
3593,65	571,00
3597,14	614,00
3600,63	645,00
3604,11	696,00
3607,60	608,00
3611,08	684,00
3614,55	727,00
3618,03	681,00
3621,50	585,00
3624,97	590,00
3628,43	645,00
3631,90	617,00
3635,36	549,00
3638,81	618,00
3642,27	605,00
3645,72	649,00
3649,17	643,00
3652,61	538,00
3656,06	645,00
3659,50	570,00
3662,93	619,00
3666,37	685,00
3669,80	763,00
3673,23	700,00
3676,65	705,00
3680,08	649,00
3683,50	601,00
3686,92	668,00
3690,33	578,00
3693,74	618,00
3697,15	564,00
3700,56	704,00
3703,96	671,00
3707,36	428,00
3710,76	578,00
3714,16	561,00
3717,55	662,00
3720,94	542,00
3724,33	576,00
3727,71	577,00
3731,10	586,00
3734,48	644,00
3737,85	553,00
3741,23	536,00
3744,60	533,00
3747,97	486,00
3751,33	636,00
3754,69	535,00
3758,05	604,00
3761,41	560,00
3764,77	594,00
3768,12	467,00
3771,47	462,00
3774,82	552,00
3778,16	-10,00
3781,50	11,00
3784,84	5,00
3788,18	8,00
>>>>>End Processed Spectral Data<<<<<
