SpectraSuite Data File
++++++++++++++++++++++++++++++++++++
Date: Mon Jan 05 16:28:31 ICT 2026
User: Administrator
Dark Spectrum Present: Yes
Reference Spectrum Present: No
Number of Sampled Component Spectra: 1
Spectrometers: MAYP113682
Integration Time (usec): 3000000 (MAYP113682)
Spectra Averaged: 1 (MAYP113682)
Boxcar Smoothing: 0 (MAYP113682)
Correct for Electrical Dark: No (MAYP113682)
Strobe/Lamp Enabled: No (MAYP113682)
Correct for Detector Non-linearity: No (MAYP113682)
Correct for Stray Light: No (MAYP113682)
Number of Pixels in Processed Spectrum: 2068
>>>>>Begin Processed Spectral Data<<<<<
-37534,58	23,00
-37414,56	6,00
-37295,11	7,00
-37176,24	2,00
-37057,95	382,00
-36940,22	455,00
-36823,05	519,00
-36706,45	528,00
-36590,40	555,00
-36474,90	528,00
-36359,95	598,00
-36245,55	553,00
-36131,68	553,00
-36018,35	533,00
-35905,55	527,00
-35793,29	640,00
-35681,54	515,00
-35570,32	576,00
-35459,62	489,00
-35349,43	693,00
-35239,75	558,00
-35130,58	529,00
-35021,91	600,00
-34913,74	531,00
-34806,07	627,00
-34698,89	647,00
-34592,20	522,00
-34486,00	598,00
-34380,28	664,00
-34275,04	615,00
-34170,27	521,00
-34065,98	652,00
-33962,16	663,00
-33858,81	627,00
-33755,92	530,00
-33653,49	707,00
-33551,52	727,00
-33450,01	653,00
-33348,94	589,00
-33248,33	518,00
-33148,16	589,00
-33048,43	609,00
-32949,14	701,00
-32850,29	644,00
-32751,87	533,00
-32653,89	611,00
-32556,33	659,00
-32459,20	539,00
-32362,49	576,00
-32266,19	651,00
-32170,32	527,00
-32074,86	641,00
-31979,82	659,00
-31885,18	673,00
-31790,95	627,00
-31697,12	657,00
-31603,69	703,00
-31510,67	599,00
-31418,04	572,00
-31325,80	564,00
-31233,95	561,00
-31142,49	655,00
-31051,42	601,00
-30960,73	719,00
-30870,43	707,00
-30780,50	663,00
-30690,95	668,00
-30601,77	671,00
-30512,97	586,00
-30424,53	670,00
-30336,46	542,00
-30248,76	635,00
-30161,42	757,00
-30074,44	572,00
-29987,81	606,00
-29901,55	697,00
-29815,63	639,00
-29730,07	702,00
-29644,86	727,00
-29560,00	593,00
-29475,48	640,00
-29391,30	680,00
-29307,47	589,00
-29223,97	600,00
-29140,81	655,00
-29057,99	716,00
-28975,50	551,00
-28893,34	775,00
-28811,51	548,00
-28730,00	698,00
-28648,82	572,00
-28567,97	588,00
-28487,43	598,00
-28407,21	608,00
-28327,32	588,00
-28247,73	717,00
-28168,46	532,00
-28089,50	656,00
-28010,85	620,00
-27932,51	565,00
-27854,48	583,00
-27776,75	572,00
-27699,32	576,00
-27622,19	540,00
-27545,37	639,00
-27468,84	675,00
-27392,60	606,00
-27316,66	631,00
-27241,01	615,00
-27165,66	626,00
-27090,59	582,00
-27015,81	664,00
-26941,31	697,00
-26867,10	617,00
-26793,17	724,00
-26719,52	606,00
-26646,15	575,00
-26573,06	615,00
-26500,24	578,00
-26427,70	621,00
-26355,43	576,00
-26283,43	649,00
-26211,71	602,00
-26140,25	638,00
-26069,06	613,00
-25998,13	591,00
-25927,46	581,00
-25857,06	520,00
-25786,92	648,00
-25717,04	497,00
-25647,42	671,00
-25578,05	530,00
-25508,94	575,00
-25440,09	635,00
-25371,48	620,00
-25303,13	709,00
-25235,02	586,00
-25167,17	622,00
-25099,56	651,00
-25032,19	578,00
-24965,07	511,00
-24898,20	549,00
-24831,56	542,00
-24765,17	613,00
-24699,01	579,00
-24633,10	636,00
-24567,41	656,00
-24501,97	678,00
-24436,75	662,00
-24371,77	644,00
-24307,03	582,00
-24242,51	577,00
-24178,22	577,00
-24114,16	536,00
-24050,32	616,00
-23986,71	579,00
-23923,32	607,00
-23860,16	611,00
-23797,22	638,00
-23734,50	641,00
-23672,00	540,00
-23609,71	583,00
-23547,65	531,00
-23485,80	697,00
-23424,16	462,00
-23362,74	783,00
-23301,53	577,00
-23240,54	506,00
-23179,75	525,00
-23119,17	537,00
-23058,80	610,00
-22998,64	630,00
-22938,68	567,00
-22878,93	677,00
-22819,39	576,00
-22760,04	631,00
-22700,90	581,00
-22641,96	589,00
-22583,22	544,00
-22524,68	598,00
-22466,33	581,00
-22408,19	624,00
-22350,23	577,00
-22292,48	513,00
-22234,92	629,00
-22177,55	647,00
-22120,37	716,00
-22063,38	571,00
-22006,58	536,00
-21949,98	542,00
-21893,56	537,00
-21837,33	609,00
-21781,28	537,00
-21725,42	659,00
-21669,74	575,00
-21614,25	558,00
-21558,94	619,00
-21503,81	719,00
-21448,86	625,00
-21394,10	583,00
-21339,51	533,00
-21285,10	495,00
-21230,86	526,00
-21176,81	522,00
-21122,93	511,00
-21069,22	418,00
-21015,69	581,00
-20962,33	635,00
-20909,14	547,00
-20856,13	574,00
-20803,28	615,00
-20750,61	588,00
-20698,10	521,00
-20645,76	564,00
-20593,59	700,00
-20541,59	602,00
-20489,75	562,00
-20438,07	547,00
-20386,56	599,00
-20335,22	583,00
-20284,03	577,00
-20233,01	559,00
-20182,15	493,00
-20131,45	632,00
-20080,91	515,00
-20030,52	657,00
-19980,30	537,00
-19930,23	522,00
-19880,32	635,00
-19830,56	546,00
-19780,96	621,00
-19731,52	594,00
-19682,23	630,00
-19633,09	550,00
-19584,10	513,00
-19535,26	527,00
-19486,58	783,00
-19438,04	525,00
-19389,66	601,00
-19341,42	549,00
-19293,33	594,00
-19245,39	643,00
-19197,60	664,00
-19149,95	623,00
-19102,45	613,00
-19055,09	464,00
-19007,87	620,00
-18960,80	670,00
-18913,87	590,00
-18867,09	558,00
-18820,44	647,00
-18773,94	596,00
-18727,57	689,00
-18681,35	488,00
-18635,26	614,00
-18589,31	524,00
-18543,50	577,00
-18497,83	589,00
-18452,29	616,00
-18406,89	490,00
-18361,63	623,00
-18316,50	601,00
-18271,50	581,00
-18226,63	708,00
-18181,90	636,00
-18137,30	606,00
-18092,84	611,00
-18048,50	657,00
-18004,29	555,00
-17960,22	481,00
-17916,27	613,00
-17872,45	638,00
-17828,76	693,00
-17785,20	575,00
-17741,77	601,00
-17698,46	649,00
-17655,28	582,00
-17612,22	624,00
-17569,29	514,00
-17526,48	642,00
-17483,79	638,00
-17441,23	611,00
-17398,79	631,00
-17356,48	555,00
-17314,28	675,00
-17272,21	624,00
-17230,26	688,00
-17188,42	571,00
-17146,71	608,00
-17105,12	560,00
-17063,64	572,00
-17022,28	649,00
-16981,04	579,00
-16939,92	593,00
-16898,91	669,00
-16858,02	490,00
-16817,25	548,00
-16776,59	598,00
-16736,04	565,00
-16695,61	633,00
-16655,29	555,00
-16615,09	588,00
-16574,99	641,00
-16535,01	558,00
-16495,15	608,00
-16455,39	609,00
-16415,74	577,00
-16376,21	650,00
-16336,78	544,00
-16297,46	562,00
-16258,26	509,00
-16219,16	560,00
-16180,17	520,00
-16141,28	660,00
-16102,51	600,00
-16063,84	573,00
-16025,27	595,00
-15986,82	573,00
-15948,46	581,00
-15910,22	674,00
-15872,07	474,00
-15834,04	626,00
-15796,10	552,00
-15758,27	799,00
-15720,54	516,00
-15682,91	561,00
-15645,39	752,00
-15607,97	701,00
-15570,64	510,00
-15533,42	685,00
-15496,30	577,00
-15459,28	622,00
-15422,36	646,00
-15385,54	518,00
-15348,82	628,00
-15312,19	658,00
-15275,66	525,00
-15239,23	603,00
-15202,90	551,00
-15166,67	578,00
-15130,53	677,00
-15094,48	666,00
-15058,54	547,00
-15022,68	584,00
-14986,93	489,00
-14951,26	615,00
-14915,69	697,00
-14880,22	559,00
-14844,84	579,00
-14809,55	623,00
-14774,35	624,00
-14739,25	497,00
-14704,24	639,00
-14669,32	561,00
-14634,49	457,00
-14599,75	590,00
-14565,10	515,00
-14530,55	632,00
-14496,08	634,00
-14461,70	590,00
-14427,41	624,00
-14393,21	448,00
-14359,10	539,00
-14325,07	601,00
-14291,14	538,00
-14257,29	576,00
-14223,52	597,00
-14189,85	678,00
-14156,26	617,00
-14122,76	495,00
-14089,34	505,00
-14056,01	586,00
-14022,76	516,00
-13989,60	579,00
-13956,52	700,00
-13923,53	661,00
-13890,62	542,00
-13857,79	554,00
-13825,05	541,00
-13792,39	547,00
-13759,81	649,00
-13727,31	616,00
-13694,90	619,00
-13662,57	687,00
-13630,31	615,00
-13598,14	569,00
-13566,05	580,00
-13534,05	600,00
-13502,12	642,00
-13470,27	579,00
-13438,50	617,00
-13406,80	528,00
-13375,19	605,00
-13343,66	564,00
-13312,20	608,00
-13280,83	511,00
-13249,53	634,00
-13218,30	480,00
-13187,16	624,00
-13156,09	772,00
-13125,10	620,00
-13094,18	566,00
-13063,34	617,00
-13032,58	484,00
-13001,89	550,00
-12971,28	629,00
-12940,74	580,00
-12910,27	632,00
-12879,88	570,00
-12849,57	659,00
-12819,33	673,00
-12789,16	635,00
-12759,06	571,00
-12729,04	596,00
-12699,09	1637,00
-12669,21	583,00
-12639,41	608,00
-12609,68	559,00
-12580,02	569,00
-12550,43	720,00
-12520,91	534,00
-12491,46	549,00
-12462,08	484,00
-12432,77	666,00
-12403,54	514,00
-12374,37	525,00
-12345,27	606,00
-12316,24	548,00
-12287,29	652,00
-12258,40	609,00
-12229,57	641,00
-12200,82	544,00
-12172,14	700,00
-12143,52	474,00
-12114,97	569,00
-12086,49	726,00
-12058,07	631,00
-12029,73	549,00
-12001,44	687,00
-11973,23	604,00
-11945,08	596,00
-11917,00	553,00
-11888,98	530,00
-11861,03	686,00
-11833,15	537,00
-11805,32	671,00
-11777,57	622,00
-11749,88	561,00
-11722,25	597,00
-11694,69	653,00
-11667,19	612,00
-11639,75	645,00
-11612,38	500,00
-11585,07	619,00
-11557,83	619,00
-11530,65	653,00
-11503,53	570,00
-11476,47	602,00
-11449,48	553,00
-11422,54	621,00
-11395,67	635,00
-11368,86	663,00
-11342,11	581,00
-11315,43	472,00
-11288,80	607,00
-11262,23	593,00
-11235,73	592,00
-11209,28	847,00
-11182,90	614,00
-11156,57	618,00
-11130,31	711,00
-11104,10	666,00
-11077,96	615,00
-11051,87	602,00
-11025,84	513,00
-10999,87	591,00
-10973,96	583,00
-10948,11	554,00
-10922,31	669,00
-10896,58	590,00
-10870,90	683,00
-10845,28	627,00
-10819,71	575,00
-10794,20	605,00
-10768,75	693,00
-10743,36	643,00
-10718,02	624,00
-10692,74	587,00
-10667,52	622,00
-10642,35	573,00
-10617,24	636,00
-10592,18	604,00
-10567,18	530,00
-10542,23	600,00
-10517,34	534,00
-10492,51	667,00
-10467,72	629,00
-10443,00	655,00
-10418,32	692,00
-10393,70	634,00
-10369,14	649,00
-10344,63	487,00
-10320,17	668,00
-10295,77	591,00
-10271,42	607,00
-10247,12	722,00
-10222,88	697,00
-10198,68	557,00
-10174,54	636,00
-10150,46	761,00
-10126,42	729,00
-10102,44	570,00
-10078,51	580,00
-10054,63	734,00
-10030,80	686,00
-10007,03	737,00
-9983,30	660,00
-9959,63	698,00
-9936,01	726,00
-9912,44	737,00
-9888,92	699,00
-9865,44	623,00
-9842,02	601,00
-9818,65	770,00
-9795,33	660,00
-9772,06	676,00
-9748,84	674,00
-9725,67	653,00
-9702,55	691,00
-9679,47	723,00
-9656,45	798,00
-9633,47	725,00
-9610,55	766,00
-9587,67	876,00
-9564,84	970,00
-9542,06	819,00
-9519,32	1002,00
-9496,64	1008,00
-9474,00	874,00
-9451,41	893,00
-9428,87	913,00
-9406,37	1011,00
-9383,92	903,00
-9361,52	852,00
-9339,17	1011,00
-9316,86	965,00
-9294,60	1160,00
-9272,38	977,00
-9250,21	1215,00
-9228,09	1197,00
-9206,01	1193,00
-9183,98	1150,00
-9162,00	934,00
-9140,06	1139,00
-9118,16	975,00
-9096,31	998,00
-9074,51	1014,00
-9052,75	1125,00
-9031,04	1091,00
-9009,37	851,00
-8987,74	1056,00
-8966,16	955,00
-8944,63	887,00
-8923,14	1035,00
-8901,69	875,00
-8880,29	720,00
-8858,93	926,00
-8837,61	977,00
-8816,34	1018,00
-8795,11	942,00
-8773,92	801,00
-8752,78	962,00
-8731,68	864,00
-8710,62	1009,00
-8689,61	788,00
-8668,63	930,00
-8647,70	939,00
-8626,82	937,00
-8605,97	1002,00
-8585,17	978,00
-8564,41	909,00
-8543,69	837,00
-8523,01	768,00
-8502,37	971,00
-8481,78	793,00
-8461,23	733,00
-8440,71	750,00
-8420,24	759,00
-8399,81	1107,00
-8379,42	750,00
-8359,08	816,00
-8338,77	688,00
-8318,50	717,00
-8298,27	647,00
-8278,09	953,00
-8257,94	812,00
-8237,83	812,00
-8217,76	846,00
-8197,74	824,00
-8177,75	826,00
-8157,80	671,00
-8137,89	726,00
-8118,02	713,00
-8098,19	846,00
-8078,40	743,00
-8058,65	733,00
-8038,93	799,00
-8019,26	806,00
-7999,62	825,00
-7980,02	778,00
-7960,46	638,00
-7940,94	660,00
-7921,46	620,00
-7902,01	638,00
-7882,60	848,00
-7863,23	732,00
-7843,90	703,00
-7824,61	679,00
-7805,35	763,00
-7786,13	703,00
-7766,95	692,00
-7747,80	784,00
-7728,69	788,00
-7709,62	770,00
-7690,59	791,00
-7671,59	754,00
-7652,63	758,00
-7633,70	690,00
-7614,81	762,00
-7595,96	736,00
-7577,15	684,00
-7558,37	652,00
-7539,62	665,00
-7520,91	677,00
-7502,24	691,00
-7483,60	809,00
-7465,00	736,00
-7446,44	793,00
-7427,91	633,00
-7409,41	647,00
-7390,95	720,00
-7372,53	626,00
-7354,14	635,00
-7335,78	724,00
-7317,46	578,00
-7299,18	464,00
-7280,92	582,00
-7262,71	790,00
-7244,52	704,00
-7226,38	615,00
-7208,26	595,00
-7190,18	582,00
-7172,14	620,00
-7154,12	788,00
-7136,15	502,00
-7118,20	726,00
-7100,29	681,00
-7082,41	772,00
-7064,57	630,00
-7046,76	614,00
-7028,98	532,00
-7011,24	697,00
-6993,53	569,00
-6975,85	668,00
-6958,20	699,00
-6940,59	644,00
-6923,01	539,00
-6905,46	633,00
-6887,94	640,00
-6870,46	738,00
-6853,01	591,00
-6835,59	543,00
-6818,21	585,00
-6800,85	644,00
-6783,53	593,00
-6766,24	545,00
-6748,98	577,00
-6731,76	602,00
-6714,56	652,00
-6697,40	544,00
-6680,26	561,00
-6663,16	568,00
-6646,09	610,00
-6629,05	546,00
-6612,05	742,00
-6595,07	500,00
-6578,13	588,00
-6561,21	555,00
-6544,33	642,00
-6527,47	423,00
-6510,65	635,00
-6493,86	461,00
-6477,10	556,00
-6460,36	639,00
-6443,66	511,00
-6426,99	582,00
-6410,35	594,00
-6393,74	640,00
-6377,16	500,00
-6360,61	580,00
-6344,09	473,00
-6327,59	505,00
-6311,13	599,00
-6294,70	518,00
-6278,29	506,00
-6261,92	502,00
-6245,58	614,00
-6229,26	606,00
-6212,97	588,00
-6196,72	511,00
-6180,49	586,00
-6164,29	510,00
-6148,12	638,00
-6131,98	644,00
-6115,86	580,00
-6099,78	556,00
-6083,72	602,00
-6067,69	587,00
-6051,69	585,00
-6035,72	640,00
-6019,78	587,00
-6003,87	648,00
-5987,98	523,00
-5972,12	600,00
-5956,29	503,00
-5940,49	483,00
-5924,71	662,00
-5908,96	552,00
-5893,24	587,00
-5877,55	561,00
-5861,89	683,00
-5846,25	440,00
-5830,64	598,00
-5815,05	507,00
-5799,50	594,00
-5783,97	602,00
-5768,47	582,00
-5752,99	728,00
-5737,55	432,00
-5722,12	558,00
-5706,73	511,00
-5691,36	698,00
-5676,02	532,00
-5660,71	597,00
-5645,42	572,00
-5630,16	591,00
-5614,92	670,00
-5599,71	549,00
-5584,53	600,00
-5569,37	495,00
-5554,24	1513,00
-5539,14	574,00
-5524,06	541,00
-5509,01	559,00
-5493,98	488,00
-5478,98	554,00
-5464,00	576,00
-5449,05	568,00
-5434,13	645,00
-5419,23	502,00
-5404,36	505,00
-5389,51	521,00
-5374,69	565,00
-5359,89	552,00
-5345,12	666,00
-5330,37	660,00
-5315,65	546,00
-5300,95	610,00
-5286,28	565,00
-5271,63	470,00
-5257,01	526,00
-5242,41	641,00
-5227,84	570,00
-5213,29	619,00
-5198,76	552,00
-5184,26	608,00
-5169,79	473,00
-5155,33	555,00
-5140,91	550,00
-5126,51	593,00
-5112,13	588,00
-5097,77	517,00
-5083,44	606,00
-5069,13	565,00
-5054,85	629,00
-5040,59	564,00
-5026,36	620,00
-5012,15	637,00
-4997,96	566,00
-4983,80	596,00
-4969,66	554,00
-4955,54	493,00
-4941,44	534,00
-4927,37	496,00
-4913,33	524,00
-4899,30	455,00
-4885,30	569,00
-4871,33	495,00
-4857,37	560,00
-4843,44	441,00
-4829,53	680,00
-4815,65	694,00
-4801,79	470,00
-4787,95	642,00
-4774,13	541,00
-4760,34	501,00
-4746,56	629,00
-4732,82	592,00
-4719,09	516,00
-4705,38	593,00
-4691,70	656,00
-4678,04	614,00
-4664,41	644,00
-4650,79	731,00
-4637,20	520,00
-4623,63	489,00
-4610,08	826,00
-4596,56	547,00
-4583,05	579,00
-4569,57	549,00
-4556,11	543,00
-4542,67	580,00
-4529,25	536,00
-4515,86	478,00
-4502,49	556,00
-4489,13	611,00
-4475,80	653,00
-4462,49	504,00
-4449,21	674,00
-4435,94	611,00
-4422,70	541,00
-4409,47	516,00
-4396,27	559,00
-4383,09	558,00
-4369,93	655,00
-4356,79	510,00
-4343,67	653,00
-4330,58	661,00
-4317,50	617,00
-4304,45	554,00
-4291,41	653,00
-4278,40	611,00
-4265,41	562,00
-4252,44	524,00
-4239,49	483,00
-4226,55	555,00
-4213,65	563,00
-4200,76	633,00
-4187,89	620,00
-4175,04	452,00
-4162,21	496,00
-4149,40	646,00
-4136,61	556,00
-4123,85	558,00
-4111,10	501,00
-4098,37	601,00
-4085,66	580,00
-4072,98	604,00
-4060,31	525,00
-4047,66	743,00
-4035,04	661,00
-4022,43	504,00
-4009,84	599,00
-3997,27	483,00
-3984,72	601,00
-3972,19	662,00
-3959,69	576,00
-3947,20	555,00
-3934,73	621,00
-3922,27	575,00
-3909,84	580,00
-3897,43	711,00
-3885,04	707,00
-3872,67	590,00
-3860,31	564,00
-3847,98	679,00
-3835,66	654,00
-3823,36	567,00
-3811,09	471,00
-3798,83	611,00
-3786,59	609,00
-3774,37	640,00
-3762,17	543,00
-3749,98	620,00
-3737,82	638,00
-3725,67	696,00
-3713,55	527,00
-3701,44	636,00
-3689,35	648,00
-3677,28	761,00
-3665,22	533,00
-3653,19	583,00
-3641,17	679,00
-3629,18	660,00
-3617,20	671,00
-3605,24	632,00
-3593,30	671,00
-3581,37	741,00
-3569,47	638,00
-3557,58	656,00
-3545,71	623,00
-3533,86	646,00
-3522,02	616,00
-3510,21	658,00
-3498,41	565,00
-3486,63	614,00
-3474,87	552,00
-3463,12	627,00
-3451,40	643,00
-3439,69	631,00
-3428,00	520,00
-3416,33	636,00
-3404,67	530,00
-3393,03	660,00
-3381,41	675,00
-3369,81	646,00
-3358,22	684,00
-3346,66	715,00
-3335,10	697,00
-3323,57	586,00
-3312,06	596,00
-3300,56	590,00
-3289,08	577,00
-3277,61	501,00
-3266,16	617,00
-3254,73	619,00
-3243,32	557,00
-3231,92	555,00
-3220,55	618,00
-3209,18	691,00
-3197,84	555,00
-3186,51	595,00
-3175,20	517,00
-3163,90	605,00
-3152,63	678,00
-3141,36	604,00
-3130,12	606,00
-3118,89	626,00
-3107,68	546,00
-3096,49	642,00
-3085,31	527,00
-3074,15	623,00
-3063,00	636,00
-3051,87	657,00
-3040,76	510,00
-3029,67	801,00
-3018,59	741,00
-3007,52	718,00
-2996,48	618,00
-2985,44	569,00
-2974,43	642,00
-2963,43	593,00
-2952,45	628,00
-2941,48	678,00
-2930,53	586,00
-2919,60	563,00
-2908,68	538,00
-2897,78	627,00
-2886,89	693,00
-2876,02	621,00
-2865,17	550,00
-2854,33	603,00
-2843,50	545,00
-2832,70	616,00
-2821,90	601,00
-2811,13	697,00
-2800,37	635,00
-2789,62	500,00
-2778,89	635,00
-2768,18	570,00
-2757,48	698,00
-2746,80	619,00
-2736,13	536,00
-2725,48	738,00
-2714,84	554,00
-2704,22	685,00
-2693,61	658,00
-2683,02	579,00
-2672,45	682,00
-2661,89	647,00
-2651,34	608,00
-2640,81	603,00
-2630,30	637,00
-2619,80	612,00
-2609,31	685,00
-2598,84	587,00
-2588,39	586,00
-2577,95	632,00
-2567,52	524,00
-2557,11	545,00
-2546,71	625,00
-2536,33	671,00
-2525,97	619,00
-2515,62	741,00
-2505,28	585,00
-2494,96	542,00
-2484,65	644,00
-2474,36	837,00
-2464,08	577,00
-2453,82	714,00
-2443,57	627,00
-2433,33	560,00
-2423,11	610,00
-2412,91	643,00
-2402,72	587,00
-2392,54	529,00
-2382,38	608,00
-2372,23	698,00
-2362,09	-53,00
-2351,97	642,00
-2341,87	539,00
-2331,78	586,00
-2321,70	662,00
-2311,64	609,00
-2301,59	624,00
-2291,55	566,00
-2281,53	671,00
-2271,53	517,00
-2261,53	642,00
-2251,55	637,00
-2241,59	600,00
-2231,64	614,00
-2221,70	565,00
-2211,78	560,00
-2201,87	596,00
-2191,97	730,00
-2182,09	600,00
-2172,22	628,00
-2162,37	517,00
-2152,53	522,00
-2142,70	534,00
-2132,89	664,00
-2123,09	630,00
-2113,30	611,00
-2103,53	632,00
-2093,77	612,00
-2084,02	601,00
-2074,29	638,00
-2064,57	565,00
-2054,86	600,00
-2045,17	690,00
-2035,49	614,00
-2025,82	515,00
-2016,17	601,00
-2006,53	625,00
-1996,91	673,00
-1987,29	543,00
-1977,69	691,00
-1968,11	545,00
-1958,53	589,00
-1948,97	644,00
-1939,42	555,00
-1929,89	569,00
-1920,37	614,00
-1910,86	532,00
-1901,36	579,00
-1891,88	598,00
-1882,41	627,00
-1872,95	676,00
-1863,51	710,00
-1854,08	691,00
-1844,66	673,00
-1835,26	719,00
-1825,86	694,00
-1816,48	499,00
-1807,11	650,00
-1797,76	649,00
-1788,42	676,00
-1779,09	650,00
-1769,77	585,00
-1760,47	732,00
-1751,17	537,00
-1741,89	553,00
-1732,63	634,00
-1723,37	779,00
-1714,13	709,00
-1704,90	636,00
-1695,68	780,00
-1686,48	513,00
-1677,29	594,00
-1668,11	729,00
-1658,94	628,00
-1649,78	553,00
-1640,64	663,00
-1631,51	598,00
-1622,39	635,00
-1613,28	651,00
-1604,19	737,00
-1595,10	536,00
-1586,03	620,00
-1576,97	612,00
-1567,93	651,00
-1558,89	685,00
-1549,87	716,00
-1540,86	566,00
-1531,86	588,00
-1522,87	597,00
-1513,90	619,00
-1504,93	672,00
-1495,98	657,00
-1487,04	670,00
-1478,12	599,00
-1469,20	582,00
-1460,30	715,00
-1451,40	702,00
-1442,52	714,00
-1433,65	708,00
-1424,80	609,00
-1415,95	556,00
-1407,12	745,00
-1398,30	563,00
-1389,48	640,00
-1380,69	581,00
-1371,90	525,00
-1363,12	652,00
-1354,36	698,00
-1345,60	704,00
-1336,86	616,00
-1328,13	674,00
-1319,41	659,00
-1310,70	595,00
-1302,01	593,00
-1293,32	548,00
-1284,65	615,00
-1275,99	665,00
-1267,33	825,00
-1258,69	634,00
-1250,06	643,00
-1241,45	523,00
-1232,84	822,00
-1224,25	635,00
-1215,66	662,00
-1207,09	687,00
-1198,53	607,00
-1189,97	640,00
-1181,43	567,00
-1172,91	620,00
-1164,39	696,00
-1155,88	648,00
-1147,38	558,00
-1138,90	552,00
-1130,43	608,00
-1121,96	598,00
-1113,51	585,00
-1105,07	638,00
-1096,64	694,00
-1088,22	659,00
-1079,81	665,00
-1071,41	693,00
-1063,02	594,00
-1054,65	671,00
-1046,28	623,00
-1037,92	684,00
-1029,58	623,00
-1021,24	717,00
-1012,92	833,00
-1004,61	596,00
-996,30	753,00
-988,01	506,00
-979,73	606,00
-971,46	728,00
-963,20	628,00
-954,95	575,00
-946,71	531,00
-938,48	707,00
-930,26	701,00
-922,06	629,00
-913,86	555,00
-905,67	548,00
-897,49	646,00
-889,33	537,00
-881,17	617,00
-873,02	627,00
-864,89	537,00
-856,76	656,00
-848,65	604,00
-840,54	702,00
-832,45	642,00
-824,36	515,00
-816,29	611,00
-808,22	661,00
-800,17	651,00
-792,12	607,00
-784,09	719,00
-776,06	561,00
-768,05	602,00
-760,04	627,00
-752,05	576,00
-744,07	621,00
-736,09	679,00
-728,13	552,00
-720,17	624,00
-712,23	595,00
-704,29	574,00
-696,37	659,00
-688,45	755,00
-680,55	642,00
-672,65	593,00
-664,77	569,00
-656,89	659,00
-649,03	541,00
-641,17	681,00
-633,32	613,00
-625,49	690,00
-617,66	570,00
-609,84	742,00
-602,03	635,00
-594,23	690,00
-586,45	678,00
-578,67	574,00
-570,90	612,00
-563,14	572,00
-555,39	684,00
-547,65	615,00
-539,91	674,00
-532,19	676,00
-524,48	678,00
-516,78	531,00
-509,08	649,00
-501,40	615,00
-493,72	633,00
-486,06	547,00
-478,40	756,00
-470,76	597,00
-463,12	627,00
-455,49	625,00
-447,87	632,00
-440,26	654,00
-432,66	615,00
-425,07	650,00
-417,49	666,00
-409,92	479,00
-402,35	568,00
-394,80	496,00
-387,25	656,00
-379,72	661,00
-372,19	694,00
-364,67	721,00
-357,17	623,00
-349,67	674,00
-342,18	533,00
-334,69	737,00
-327,22	702,00
-319,76	648,00
-312,30	709,00
-304,86	614,00
-297,42	716,00
-290,00	518,00
-282,58	666,00
-275,17	674,00
-267,77	767,00
-260,37	687,00
-252,99	799,00
-245,62	714,00
-238,25	694,00
-230,90	628,00
-223,55	871,00
-216,21	762,00
-208,88	869,00
-201,56	799,00
-194,25	783,00
-186,94	848,00
-179,65	838,00
-172,36	954,00
-165,08	912,00
-157,81	952,00
-150,55	1037,00
-143,30	1090,00
-136,06	1081,00
-128,82	1032,00
-121,60	1130,00
-114,38	1290,00
-107,17	1369,00
-99,97	1557,00
-92,78	1599,00
-85,60	1739,00
-78,42	1979,00
-71,25	2133,00
-64,10	2319,00
-56,95	2656,00
-49,81	3064,00
-42,67	3617,00
-35,55	4448,00
-28,43	5698,00
-21,33	9151,00
-14,23	28370,00
-7,14	57498,00
-0,05	57284,00
7,02	57012,00
14,09	57319,00
21,14	24932,00
28,19	10716,00
35,23	6922,00
42,27	5586,00
49,29	4606,00
56,31	3972,00
63,32	3529,00
70,32	3046,00
77,31	2627,00
84,29	2312,00
91,27	2154,00
98,23	2071,00
105,19	1972,00
112,14	2228,00
119,09	3427,00
126,02	5338,00
132,95	6362,00
139,87	6510,00
146,78	6824,00
153,68	6699,00
160,58	6677,00
167,46	6577,00
174,34	6644,00
181,21	6681,00
188,08	6522,00
194,93	6660,00
201,78	6636,00
208,62	6684,00
215,45	6762,00
222,27	6720,00
229,09	6810,00
235,90	6580,00
242,70	6619,00
249,49	6661,00
256,27	6623,00
263,05	6511,00
269,82	6603,00
276,58	6539,00
283,33	6470,00
290,08	6422,00
296,82	6426,00
303,55	6189,00
310,27	6338,00
316,98	6264,00
323,69	6249,00
330,39	6290,00
337,08	6217,00
343,76	6277,00
350,44	6299,00
357,11	6326,00
363,77	6294,00
370,42	6281,00
377,07	6234,00
383,71	6347,00
390,34	6296,00
396,96	6310,00
403,58	6282,00
410,19	6302,00
416,79	6452,00
423,38	6468,00
429,97	6240,00
436,55	6107,00
443,12	6112,00
449,68	6231,00
456,24	5987,00
462,79	5961,00
469,33	5974,00
475,86	5966,00
482,39	5992,00
488,91	6019,00
495,42	5968,00
501,93	5928,00
508,42	5803,00
514,91	5819,00
521,40	5889,00
527,87	5860,00
534,34	5724,00
540,80	5792,00
547,25	5758,00
553,70	5881,00
560,14	5760,00
566,57	5783,00
573,00	5762,00
579,41	5809,00
585,83	5831,00
592,23	5789,00
598,62	5683,00
605,01	5597,00
611,40	5699,00
617,77	5841,00
624,14	5661,00
630,50	5660,00
636,85	5517,00
643,20	5596,00
649,54	5582,00
655,87	5606,00
662,20	5552,00
668,52	5516,00
674,83	5521,00
681,13	5399,00
687,43	5556,00
693,72	5325,00
700,00	5264,00
706,28	5416,00
712,55	5347,00
718,81	5374,00
725,07	5429,00
731,32	5470,00
737,56	5430,00
743,79	5372,00
750,02	5429,00
756,24	5358,00
762,46	5337,00
768,67	5544,00
774,87	5468,00
781,06	5357,00
787,25	5431,00
793,43	5467,00
799,60	5368,00
805,77	5418,00
811,93	5343,00
818,08	5465,00
824,23	5296,00
830,37	5638,00
836,50	5227,00
842,63	5266,00
848,75	5350,00
854,87	5115,00
860,97	5358,00
867,07	5218,00
873,17	5169,00
879,25	5190,00
885,33	5307,00
891,41	5205,00
897,47	5191,00
903,53	5141,00
909,59	5188,00
915,63	5190,00
921,67	5177,00
927,71	5111,00
933,74	5052,00
939,76	4985,00
945,77	5018,00
951,78	5208,00
957,78	4949,00
963,78	5078,00
969,77	5004,00
975,75	4996,00
981,72	4951,00
987,69	5937,00
993,66	5110,00
999,61	5061,00
1005,56	4956,00
1011,51	4954,00
1017,44	5053,00
1023,37	5030,00
1029,30	4986,00
1035,22	5071,00
1041,13	5189,00
1047,03	5063,00
1052,93	5253,00
1058,83	5491,00
1064,71	5689,00
1070,59	5338,00
1076,47	5245,00
1082,33	5138,00
1088,20	5151,00
1094,05	5124,00
1099,90	4925,00
1105,74	4924,00
1111,58	4924,00
1117,41	4989,00
1123,23	5238,00
1129,05	5407,00
1134,86	5337,00
1140,67	5159,00
1146,47	5019,00
1152,26	4974,00
1158,05	4807,00
1163,83	4907,00
1169,60	4977,00
1175,37	4972,00
1181,13	4957,00
1186,89	4875,00
1192,64	4797,00
1198,38	4948,00
1204,12	4831,00
1209,85	4851,00
1215,58	4919,00
1221,30	4949,00
1227,02	4888,00
1232,72	4805,00
1238,43	4842,00
1244,12	4806,00
1249,81	4874,00
1255,50	5026,00
1261,17	4912,00
1266,85	4893,00
1272,51	4928,00
1278,17	5105,00
1283,83	5024,00
1289,47	5411,00
1295,12	5739,00
1300,75	5566,00
1306,38	5442,00
1312,01	5174,00
1317,63	5096,00
1323,24	5022,00
1328,85	5058,00
1334,45	4864,00
1340,04	4898,00
1345,63	4821,00
1351,22	5034,00
1356,80	4987,00
1362,37	5152,00
1367,93	4871,00
1373,49	5103,00
1379,05	5078,00
1384,60	5001,00
1390,14	5032,00
1395,68	4953,00
1401,21	4942,00
1406,74	5013,00
1412,26	5149,00
1417,77	5373,00
1423,28	5255,00
1428,78	5430,00
1434,28	5815,00
1439,77	5817,00
1445,26	5924,00
1450,74	5897,00
1456,22	5638,00
1461,68	5620,00
1467,15	5463,00
1472,61	5240,00
1478,06	5226,00
1483,51	5001,00
1488,95	4911,00
1494,38	4901,00
1499,81	4694,00
1505,24	4665,00
1510,65	4684,00
1516,07	4688,00
1521,48	4708,00
1526,88	4493,00
1532,27	4635,00
1537,67	4457,00
1543,05	4663,00
1548,43	4462,00
1553,81	4650,00
1559,18	4497,00
1564,54	4544,00
1569,90	4490,00
1575,25	4383,00
1580,60	4415,00
1585,94	4502,00
1591,28	4386,00
1596,61	4464,00
1601,93	4396,00
1607,25	4515,00
1612,57	4438,00
1617,88	4418,00
1623,18	4388,00
1628,48	4313,00
1633,77	4263,00
1639,06	4276,00
1644,34	4349,00
1649,62	4193,00
1654,89	4270,00
1660,16	4139,00
1665,42	4406,00
1670,67	4194,00
1675,92	4116,00
1681,17	4148,00
1686,41	4235,00
1691,64	4129,00
1696,87	4045,00
1702,10	4054,00
1707,32	4098,00
1712,53	4057,00
1717,74	3991,00
1722,94	4186,00
1728,14	3910,00
1733,33	3916,00
1738,52	3825,00
1743,70	4008,00
1748,88	3915,00
1754,05	3928,00
1759,22	3809,00
1764,38	2959,00
1769,53	3968,00
1774,69	3891,00
1779,83	3763,00
1784,97	3846,00
1790,11	3764,00
1795,24	3682,00
1800,36	3687,00
1805,48	3604,00
1810,60	3691,00
1815,71	3683,00
1820,82	3539,00
1825,92	3800,00
1831,01	3685,00
1836,10	3631,00
1841,19	3678,00
1846,26	3553,00
1851,34	3706,00
1856,41	3649,00
1861,47	3608,00
1866,53	3655,00
1871,59	3489,00
1876,64	3571,00
1881,68	3608,00
1886,72	3545,00
1891,76	3481,00
1896,79	3495,00
1901,81	3368,00
1906,83	3464,00
1911,85	3425,00
1916,86	3379,00
1921,86	3243,00
1926,86	3226,00
1931,86	3335,00
1936,85	3255,00
1941,83	3207,00
1946,81	3137,00
1951,79	3066,00
1956,76	3159,00
1961,72	3059,00
1966,68	3130,00
1971,64	3246,00
1976,59	3278,00
1981,54	3203,00
1986,48	3156,00
1991,42	2999,00
1996,35	3235,00
2001,27	3154,00
2006,20	3120,00
2011,11	3085,00
2016,03	3098,00
2020,93	2973,00
2025,84	3050,00
2030,73	3013,00
2035,63	2930,00
2040,52	3021,00
2045,40	2923,00
2050,28	3002,00
2055,15	2954,00
2060,02	2845,00
2064,89	3001,00
2069,75	2992,00
2074,60	2892,00
2079,46	2744,00
2084,30	2840,00
2089,14	2759,00
2093,98	2945,00
2098,81	2856,00
2103,64	2923,00
2108,46	2892,00
2113,28	2953,00
2118,09	2858,00
2122,90	2954,00
2127,70	2820,00
2132,50	2815,00
2137,30	2733,00
2142,09	2660,00
2146,87	2743,00
2151,66	2792,00
2156,43	2691,00
2161,20	2773,00
2165,97	2803,00
2170,73	2731,00
2175,49	2760,00
2180,24	2853,00
2184,99	2764,00
2189,74	2820,00
2194,48	2714,00
2199,21	2695,00
2203,94	2693,00
2208,67	2602,00
2213,39	2537,00
2218,11	2592,00
2222,82	2594,00
2227,53	2644,00
2232,23	2620,00
2236,93	2628,00
2241,63	2652,00
2246,32	2588,00
2251,00	2603,00
2255,68	2542,00
2260,36	2500,00
2265,03	2465,00
2269,70	2611,00
2274,36	2493,00
2279,02	2482,00
2283,68	2419,00
2288,33	2464,00
2292,97	2425,00
2297,61	2414,00
2302,25	2428,00
2306,88	2312,00
2311,51	2291,00
2316,14	2360,00
2320,75	2270,00
2325,37	2330,00
2329,98	2354,00
2334,59	2382,00
2339,19	2304,00
2343,79	2185,00
2348,38	2359,00
2352,97	2267,00
2357,55	2249,00
2362,13	2259,00
2366,71	2270,00
2371,28	2403,00
2375,85	2224,00
2380,41	2259,00
2384,97	2186,00
2389,52	2283,00
2394,07	2305,00
2398,62	2141,00
2403,16	2223,00
2407,70	2021,00
2412,23	2098,00
2416,76	2144,00
2421,29	2200,00
2425,81	2276,00
2430,32	2219,00
2434,84	2021,00
2439,34	2068,00
2443,85	2189,00
2448,35	2082,00
2452,84	1905,00
2457,33	1994,00
2461,82	1909,00
2466,30	1962,00
2470,78	2006,00
2475,25	2031,00
2479,72	1994,00
2484,19	2010,00
2488,65	1930,00
2493,11	1916,00
2497,56	2051,00
2502,01	1893,00
2506,46	1920,00
2510,90	1904,00
2515,34	1833,00
2519,77	1946,00
2524,20	1901,00
2528,62	1888,00
2533,04	1963,00
2537,46	1927,00
2541,87	1838,00
2546,28	1894,00
2550,68	1870,00
2555,08	1844,00
2559,48	1892,00
2563,87	1701,00
2568,26	1803,00
2572,64	1867,00
2577,02	1840,00
2581,40	1684,00
2585,77	1745,00
2590,14	1748,00
2594,50	1651,00
2598,86	1695,00
2603,22	1669,00
2607,57	1636,00
2611,92	1652,00
2616,26	1811,00
2620,60	1716,00
2624,94	1715,00
2629,27	1720,00
2633,60	1626,00
2637,92	1773,00
2642,24	1736,00
2646,56	1639,00
2650,87	1593,00
2655,18	1704,00
2659,48	1527,00
2663,78	1544,00
2668,08	1576,00
2672,37	1682,00
2676,66	1601,00
2680,95	1578,00
2685,23	1686,00
2689,50	1633,00
2693,78	1633,00
2698,05	1530,00
2702,31	1656,00
2706,57	1732,00
2710,83	1702,00
2715,08	1724,00
2719,33	1709,00
2723,58	1663,00
2727,82	1777,00
2732,06	1626,00
2736,29	1717,00
2740,53	1616,00
2744,75	1621,00
2748,97	1531,00
2753,19	1652,00
2757,41	1553,00
2761,62	1537,00
2765,83	1541,00
2770,03	1472,00
2774,23	1577,00
2778,43	1542,00
2782,62	1607,00
2786,81	1527,00
2791,00	1527,00
2795,18	1641,00
2799,35	1560,00
2803,53	1552,00
2807,70	1554,00
2811,86	1589,00
2816,03	1691,00
2820,19	1703,00
2824,34	1622,00
2828,49	1738,00
2832,64	1789,00
2836,78	1979,00
2840,92	2082,00
2845,06	2339,00
2849,19	2493,00
2853,32	2507,00
2857,45	2433,00
2861,57	2517,00
2865,69	2474,00
2869,80	2339,00
2873,91	2433,00
2878,02	2497,00
2882,12	2687,00
2886,22	2571,00
2890,32	2518,00
2894,41	2515,00
2898,50	2416,00
2902,58	2361,00
2906,67	2261,00
2910,74	2037,00
2914,82	2003,00
2918,89	2113,00
2922,96	1859,00
2927,02	1771,00
2931,08	1770,00
2935,13	1666,00
2939,19	1737,00
2943,24	1662,00
2947,28	1724,00
2951,32	1457,00
2955,36	1474,00
2959,40	1484,00
2963,43	1454,00
2967,46	1408,00
2971,48	1379,00
2975,50	1326,00
2979,52	1285,00
2983,53	1357,00
2987,54	1250,00
2991,55	1312,00
2995,55	1266,00
2999,55	1185,00
3003,54	1186,00
3007,54	1206,00
3011,53	1207,00
3015,51	1148,00
3019,49	1070,00
3023,47	1039,00
3027,45	1088,00
3031,42	1091,00
3035,39	1108,00
3039,35	1099,00
3043,31	1131,00
3047,27	1120,00
3051,22	1155,00
3055,17	1083,00
3059,12	996,00
3063,06	1100,00
3067,00	1019,00
3070,94	986,00
3074,87	1100,00
3078,80	1047,00
3082,73	1148,00
3086,65	984,00
3090,57	994,00
3094,49	947,00
3098,40	942,00
3102,31	961,00
3106,22	878,00
3110,12	1004,00
3114,02	844,00
3117,92	944,00
3121,81	989,00
3125,70	968,00
3129,58	941,00
3133,47	870,00
3137,34	1036,00
3141,22	1029,00
3145,09	889,00
3148,96	929,00
3152,83	948,00
3156,69	970,00
3160,55	919,00
3164,40	1022,00
3168,26	957,00
3172,10	938,00
3175,95	931,00
3179,79	988,00
3183,63	952,00
3187,47	824,00
3191,30	987,00
3195,13	921,00
3198,95	821,00
3202,78	877,00
3206,60	800,00
3210,41	861,00
3214,23	828,00
3218,03	838,00
3221,84	835,00
3225,64	811,00
3229,44	761,00
3233,24	867,00
3237,03	845,00
3240,82	836,00
3244,61	768,00
3248,39	859,00
3252,17	875,00
3255,95	891,00
3259,72	881,00
3263,49	894,00
3267,26	866,00
3271,03	787,00
3274,79	764,00
3278,54	851,00
3282,30	701,00
3286,05	898,00
3289,80	774,00
3293,54	782,00
3297,29	848,00
3301,02	763,00
3304,76	829,00
3308,49	886,00
3312,22	737,00
3315,95	810,00
3319,67	741,00
3323,39	853,00
3327,10	804,00
3330,82	811,00
3334,53	759,00
3338,24	729,00
3341,94	721,00
3345,64	792,00
3349,34	799,00
3353,03	755,00
3356,72	702,00
3360,41	833,00
3364,10	664,00
3367,78	748,00
3371,46	742,00
3375,13	756,00
3378,81	795,00
3382,48	701,00
3386,14	730,00
3389,81	815,00
3393,47	719,00
3397,12	859,00
3400,78	745,00
3404,43	704,00
3408,08	756,00
3411,72	663,00
3415,36	668,00
3419,00	717,00
3422,64	740,00
3426,27	711,00
3429,90	704,00
3433,53	655,00
3437,15	749,00
3440,77	591,00
3444,39	666,00
3448,00	734,00
3451,62	744,00
3455,22	782,00
3458,83	592,00
3462,43	705,00
3466,03	714,00
3469,63	685,00
3473,22	643,00
3476,81	656,00
3480,40	820,00
3483,99	707,00
3487,57	629,00
3491,15	736,00
3494,72	725,00
3498,29	760,00
3501,86	647,00
3505,43	625,00
3508,99	582,00
3512,56	619,00
3516,11	711,00
3519,67	606,00
3523,22	701,00
3526,77	620,00
3530,32	768,00
3533,86	688,00
3537,40	703,00
3540,94	700,00
3544,47	635,00
3548,00	617,00
3551,53	710,00
3555,06	662,00
3558,58	713,00
3562,10	690,00
3565,62	593,00
3569,13	619,00
3572,64	699,00
3576,15	594,00
3579,66	648,00
3583,16	652,00
3586,66	741,00
3590,16	656,00
3593,65	604,00
3597,14	524,00
3600,63	630,00
3604,11	668,00
3607,60	625,00
3611,08	614,00
3614,55	662,00
3618,03	549,00
3621,50	499,00
3624,97	510,00
3628,43	591,00
3631,90	499,00
3635,36	515,00
3638,81	578,00
3642,27	583,00
3645,72	623,00
3649,17	545,00
3652,61	477,00
3656,06	475,00
3659,50	615,00
3662,93	594,00
3666,37	607,00
3669,80	711,00
3673,23	629,00
3676,65	534,00
3680,08	641,00
3683,50	585,00
3686,92	543,00
3690,33	553,00
3693,74	589,00
3697,15	491,00
3700,56	645,00
3703,96	597,00
3707,36	471,00
3710,76	536,00
3714,16	511,00
3717,55	523,00
3720,94	437,00
3724,33	570,00
3727,71	582,00
3731,10	573,00
3734,48	585,00
3737,85	553,00
3741,23	554,00
3744,60	569,00
3747,97	445,00
3751,33	542,00
3754,69	558,00
3758,05	512,00
3761,41	500,00
3764,77	465,00
3768,12	443,00
3771,47	398,00
3774,82	481,00
3778,16	-4,00
3781,50	10,00
3784,84	4,00
3788,18	9,00
>>>>>End Processed Spectral Data<<<<<
