SpectraSuite Data File
++++++++++++++++++++++++++++++++++++
Date: Mon Jan 05 16:24:28 ICT 2026
User: Administrator
Dark Spectrum Present: Yes
Reference Spectrum Present: No
Number of Sampled Component Spectra: 1
Spectrometers: MAYP113682
Integration Time (usec): 3000000 (MAYP113682)
Spectra Averaged: 1 (MAYP113682)
Boxcar Smoothing: 0 (MAYP113682)
Correct for Electrical Dark: No (MAYP113682)
Strobe/Lamp Enabled: No (MAYP113682)
Correct for Detector Non-linearity: No (MAYP113682)
Correct for Stray Light: No (MAYP113682)
Number of Pixels in Processed Spectrum: 2068
>>>>>Begin Processed Spectral Data<<<<<
-37534,58	11,00
-37414,56	5,00
-37295,11	6,00
-37176,24	4,00
-37057,95	269,00
-36940,22	298,00
-36823,05	324,00
-36706,45	317,00
-36590,40	338,00
-36474,90	310,00
-36359,95	354,00
-36245,55	353,00
-36131,68	361,00
-36018,35	364,00
-35905,55	367,00
-35793,29	365,00
-35681,54	297,00
-35570,32	327,00
-35459,62	301,00
-35349,43	396,00
-35239,75	369,00
-35130,58	343,00
-35021,91	322,00
-34913,74	385,00
-34806,07	317,00
-34698,89	393,00
-34592,20	334,00
-34486,00	335,00
-34380,28	366,00
-34275,04	316,00
-34170,27	280,00
-34065,98	411,00
-33962,16	378,00
-33858,81	394,00
-33755,92	354,00
-33653,49	381,00
-33551,52	460,00
-33450,01	347,00
-33348,94	381,00
-33248,33	307,00
-33148,16	372,00
-33048,43	312,00
-32949,14	456,00
-32850,29	427,00
-32751,87	334,00
-32653,89	402,00
-32556,33	445,00
-32459,20	313,00
-32362,49	401,00
-32266,19	399,00
-32170,32	224,00
-32074,86	389,00
-31979,82	463,00
-31885,18	383,00
-31790,95	422,00
-31697,12	487,00
-31603,69	432,00
-31510,67	422,00
-31418,04	418,00
-31325,80	315,00
-31233,95	378,00
-31142,49	347,00
-31051,42	309,00
-30960,73	430,00
-30870,43	430,00
-30780,50	461,00
-30690,95	409,00
-30601,77	503,00
-30512,97	302,00
-30424,53	402,00
-30336,46	304,00
-30248,76	425,00
-30161,42	408,00
-30074,44	310,00
-29987,81	371,00
-29901,55	442,00
-29815,63	382,00
-29730,07	441,00
-29644,86	407,00
-29560,00	340,00
-29475,48	445,00
-29391,30	473,00
-29307,47	429,00
-29223,97	349,00
-29140,81	385,00
-29057,99	471,00
-28975,50	275,00
-28893,34	453,00
-28811,51	371,00
-28730,00	400,00
-28648,82	370,00
-28567,97	384,00
-28487,43	386,00
-28407,21	371,00
-28327,32	316,00
-28247,73	457,00
-28168,46	311,00
-28089,50	439,00
-28010,85	315,00
-27932,51	316,00
-27854,48	396,00
-27776,75	352,00
-27699,32	348,00
-27622,19	378,00
-27545,37	423,00
-27468,84	391,00
-27392,60	320,00
-27316,66	484,00
-27241,01	352,00
-27165,66	348,00
-27090,59	260,00
-27015,81	422,00
-26941,31	364,00
-26867,10	380,00
-26793,17	504,00
-26719,52	407,00
-26646,15	275,00
-26573,06	356,00
-26500,24	255,00
-26427,70	421,00
-26355,43	392,00
-26283,43	397,00
-26211,71	351,00
-26140,25	409,00
-26069,06	330,00
-25998,13	382,00
-25927,46	350,00
-25857,06	347,00
-25786,92	378,00
-25717,04	270,00
-25647,42	396,00
-25578,05	316,00
-25508,94	355,00
-25440,09	359,00
-25371,48	397,00
-25303,13	429,00
-25235,02	378,00
-25167,17	315,00
-25099,56	392,00
-25032,19	358,00
-24965,07	288,00
-24898,20	316,00
-24831,56	262,00
-24765,17	437,00
-24699,01	347,00
-24633,10	383,00
-24567,41	378,00
-24501,97	310,00
-24436,75	329,00
-24371,77	380,00
-24307,03	295,00
-24242,51	432,00
-24178,22	294,00
-24114,16	364,00
-24050,32	410,00
-23986,71	405,00
-23923,32	360,00
-23860,16	390,00
-23797,22	362,00
-23734,50	352,00
-23672,00	362,00
-23609,71	350,00
-23547,65	353,00
-23485,80	411,00
-23424,16	291,00
-23362,74	457,00
-23301,53	344,00
-23240,54	295,00
-23179,75	318,00
-23119,17	361,00
-23058,80	323,00
-22998,64	410,00
-22938,68	426,00
-22878,93	416,00
-22819,39	283,00
-22760,04	383,00
-22700,90	356,00
-22641,96	473,00
-22583,22	370,00
-22524,68	391,00
-22466,33	431,00
-22408,19	409,00
-22350,23	363,00
-22292,48	284,00
-22234,92	391,00
-22177,55	399,00
-22120,37	437,00
-22063,38	333,00
-22006,58	330,00
-21949,98	358,00
-21893,56	297,00
-21837,33	374,00
-21781,28	285,00
-21725,42	377,00
-21669,74	390,00
-21614,25	360,00
-21558,94	353,00
-21503,81	404,00
-21448,86	477,00
-21394,10	343,00
-21339,51	310,00
-21285,10	290,00
-21230,86	352,00
-21176,81	309,00
-21122,93	324,00
-21069,22	323,00
-21015,69	393,00
-20962,33	441,00
-20909,14	377,00
-20856,13	358,00
-20803,28	479,00
-20750,61	431,00
-20698,10	269,00
-20645,76	262,00
-20593,59	343,00
-20541,59	437,00
-20489,75	434,00
-20438,07	331,00
-20386,56	322,00
-20335,22	307,00
-20284,03	369,00
-20233,01	351,00
-20182,15	245,00
-20131,45	266,00
-20080,91	244,00
-20030,52	371,00
-19980,30	390,00
-19930,23	353,00
-19880,32	352,00
-19830,56	327,00
-19780,96	421,00
-19731,52	352,00
-19682,23	346,00
-19633,09	306,00
-19584,10	282,00
-19535,26	453,00
-19486,58	383,00
-19438,04	278,00
-19389,66	444,00
-19341,42	342,00
-19293,33	385,00
-19245,39	414,00
-19197,60	420,00
-19149,95	387,00
-19102,45	360,00
-19055,09	259,00
-19007,87	323,00
-18960,80	462,00
-18913,87	325,00
-18867,09	404,00
-18820,44	427,00
-18773,94	411,00
-18727,57	371,00
-18681,35	305,00
-18635,26	265,00
-18589,31	323,00
-18543,50	317,00
-18497,83	371,00
-18452,29	360,00
-18406,89	278,00
-18361,63	407,00
-18316,50	402,00
-18271,50	400,00
-18226,63	440,00
-18181,90	375,00
-18137,30	449,00
-18092,84	332,00
-18048,50	374,00
-18004,29	282,00
-17960,22	311,00
-17916,27	363,00
-17872,45	368,00
-17828,76	400,00
-17785,20	274,00
-17741,77	323,00
-17698,46	421,00
-17655,28	352,00
-17612,22	339,00
-17569,29	323,00
-17526,48	393,00
-17483,79	475,00
-17441,23	353,00
-17398,79	400,00
-17356,48	231,00
-17314,28	465,00
-17272,21	357,00
-17230,26	359,00
-17188,42	408,00
-17146,71	426,00
-17105,12	261,00
-17063,64	384,00
-17022,28	345,00
-16981,04	309,00
-16939,92	341,00
-16898,91	408,00
-16858,02	298,00
-16817,25	358,00
-16776,59	351,00
-16736,04	330,00
-16695,61	444,00
-16655,29	287,00
-16615,09	341,00
-16574,99	348,00
-16535,01	328,00
-16495,15	399,00
-16455,39	415,00
-16415,74	404,00
-16376,21	305,00
-16336,78	263,00
-16297,46	335,00
-16258,26	363,00
-16219,16	343,00
-16180,17	341,00
-16141,28	307,00
-16102,51	348,00
-16063,84	301,00
-16025,27	403,00
-15986,82	263,00
-15948,46	396,00
-15910,22	359,00
-15872,07	354,00
-15834,04	271,00
-15796,10	323,00
-15758,27	493,00
-15720,54	399,00
-15682,91	320,00
-15645,39	477,00
-15607,97	397,00
-15570,64	271,00
-15533,42	477,00
-15496,30	404,00
-15459,28	413,00
-15422,36	401,00
-15385,54	252,00
-15348,82	374,00
-15312,19	445,00
-15275,66	403,00
-15239,23	388,00
-15202,90	311,00
-15166,67	440,00
-15130,53	460,00
-15094,48	391,00
-15058,54	279,00
-15022,68	338,00
-14986,93	316,00
-14951,26	409,00
-14915,69	455,00
-14880,22	332,00
-14844,84	282,00
-14809,55	344,00
-14774,35	417,00
-14739,25	312,00
-14704,24	459,00
-14669,32	342,00
-14634,49	313,00
-14599,75	389,00
-14565,10	336,00
-14530,55	396,00
-14496,08	366,00
-14461,70	308,00
-14427,41	362,00
-14393,21	292,00
-14359,10	355,00
-14325,07	328,00
-14291,14	356,00
-14257,29	327,00
-14223,52	343,00
-14189,85	491,00
-14156,26	357,00
-14122,76	315,00
-14089,34	257,00
-14056,01	331,00
-14022,76	280,00
-13989,60	384,00
-13956,52	455,00
-13923,53	396,00
-13890,62	234,00
-13857,79	347,00
-13825,05	267,00
-13792,39	245,00
-13759,81	381,00
-13727,31	347,00
-13694,90	441,00
-13662,57	448,00
-13630,31	412,00
-13598,14	374,00
-13566,05	389,00
-13534,05	366,00
-13502,12	346,00
-13470,27	408,00
-13438,50	451,00
-13406,80	360,00
-13375,19	365,00
-13343,66	332,00
-13312,20	379,00
-13280,83	267,00
-13249,53	412,00
-13218,30	250,00
-13187,16	322,00
-13156,09	505,00
-13125,10	396,00
-13094,18	419,00
-13063,34	337,00
-13032,58	375,00
-13001,89	321,00
-12971,28	391,00
-12940,74	337,00
-12910,27	397,00
-12879,88	358,00
-12849,57	523,00
-12819,33	399,00
-12789,16	441,00
-12759,06	356,00
-12729,04	357,00
-12699,09	291,00
-12669,21	366,00
-12639,41	423,00
-12609,68	326,00
-12580,02	297,00
-12550,43	406,00
-12520,91	338,00
-12491,46	339,00
-12462,08	259,00
-12432,77	303,00
-12403,54	351,00
-12374,37	322,00
-12345,27	385,00
-12316,24	449,00
-12287,29	423,00
-12258,40	384,00
-12229,57	383,00
-12200,82	272,00
-12172,14	328,00
-12143,52	251,00
-12114,97	319,00
-12086,49	418,00
-12058,07	383,00
-12029,73	358,00
-12001,44	386,00
-11973,23	467,00
-11945,08	369,00
-11917,00	303,00
-11888,98	320,00
-11861,03	478,00
-11833,15	362,00
-11805,32	391,00
-11777,57	348,00
-11749,88	371,00
-11722,25	304,00
-11694,69	341,00
-11667,19	386,00
-11639,75	432,00
-11612,38	347,00
-11585,07	330,00
-11557,83	387,00
-11530,65	472,00
-11503,53	303,00
-11476,47	383,00
-11449,48	298,00
-11422,54	384,00
-11395,67	422,00
-11368,86	450,00
-11342,11	245,00
-11315,43	343,00
-11288,80	359,00
-11262,23	308,00
-11235,73	410,00
-11209,28	545,00
-11182,90	391,00
-11156,57	276,00
-11130,31	437,00
-11104,10	369,00
-11077,96	308,00
-11051,87	349,00
-11025,84	330,00
-10999,87	362,00
-10973,96	339,00
-10948,11	289,00
-10922,31	416,00
-10896,58	309,00
-10870,90	444,00
-10845,28	326,00
-10819,71	359,00
-10794,20	432,00
-10768,75	405,00
-10743,36	476,00
-10718,02	370,00
-10692,74	368,00
-10667,52	379,00
-10642,35	398,00
-10617,24	396,00
-10592,18	406,00
-10567,18	388,00
-10542,23	398,00
-10517,34	324,00
-10492,51	408,00
-10467,72	354,00
-10443,00	446,00
-10418,32	447,00
-10393,70	445,00
-10369,14	475,00
-10344,63	372,00
-10320,17	420,00
-10295,77	411,00
-10271,42	394,00
-10247,12	429,00
-10222,88	503,00
-10198,68	441,00
-10174,54	397,00
-10150,46	528,00
-10126,42	462,00
-10102,44	431,00
-10078,51	344,00
-10054,63	413,00
-10030,80	497,00
-10007,03	532,00
-9983,30	400,00
-9959,63	443,00
-9936,01	453,00
-9912,44	428,00
-9888,92	497,00
-9865,44	412,00
-9842,02	487,00
-9818,65	545,00
-9795,33	372,00
-9772,06	449,00
-9748,84	412,00
-9725,67	447,00
-9702,55	467,00
-9679,47	490,00
-9656,45	635,00
-9633,47	504,00
-9610,55	580,00
-9587,67	624,00
-9564,84	667,00
-9542,06	674,00
-9519,32	710,00
-9496,64	808,00
-9474,00	676,00
-9451,41	783,00
-9428,87	686,00
-9406,37	833,00
-9383,92	748,00
-9361,52	655,00
-9339,17	788,00
-9316,86	786,00
-9294,60	1066,00
-9272,38	1001,00
-9250,21	1159,00
-9228,09	1149,00
-9206,01	1160,00
-9183,98	1019,00
-9162,00	860,00
-9140,06	971,00
-9118,16	989,00
-9096,31	937,00
-9074,51	1083,00
-9052,75	1133,00
-9031,04	1048,00
-9009,37	879,00
-8987,74	942,00
-8966,16	834,00
-8944,63	810,00
-8923,14	747,00
-8901,69	731,00
-8880,29	788,00
-8858,93	797,00
-8837,61	1010,00
-8816,34	1010,00
-8795,11	1052,00
-8773,92	752,00
-8752,78	834,00
-8731,68	796,00
-8710,62	807,00
-8689,61	679,00
-8668,63	870,00
-8647,70	996,00
-8626,82	976,00
-8605,97	979,00
-8585,17	971,00
-8564,41	839,00
-8543,69	840,00
-8523,01	668,00
-8502,37	831,00
-8481,78	893,00
-8461,23	762,00
-8440,71	893,00
-8420,24	881,00
-8399,81	1014,00
-8379,42	943,00
-8359,08	868,00
-8338,77	713,00
-8318,50	611,00
-8298,27	617,00
-8278,09	833,00
-8257,94	840,00
-8237,83	846,00
-8217,76	840,00
-8197,74	821,00
-8177,75	906,00
-8157,80	777,00
-8137,89	734,00
-8118,02	738,00
-8098,19	741,00
-8078,40	799,00
-8058,65	756,00
-8038,93	812,00
-8019,26	792,00
-7999,62	849,00
-7980,02	735,00
-7960,46	704,00
-7940,94	648,00
-7921,46	603,00
-7902,01	535,00
-7882,60	789,00
-7863,23	671,00
-7843,90	642,00
-7824,61	735,00
-7805,35	790,00
-7786,13	768,00
-7766,95	818,00
-7747,80	709,00
-7728,69	736,00
-7709,62	755,00
-7690,59	684,00
-7671,59	770,00
-7652,63	736,00
-7633,70	740,00
-7614,81	789,00
-7595,96	624,00
-7577,15	713,00
-7558,37	596,00
-7539,62	666,00
-7520,91	556,00
-7502,24	640,00
-7483,60	630,00
-7465,00	658,00
-7446,44	694,00
-7427,91	590,00
-7409,41	550,00
-7390,95	573,00
-7372,53	518,00
-7354,14	556,00
-7335,78	588,00
-7317,46	650,00
-7299,18	459,00
-7280,92	511,00
-7262,71	732,00
-7244,52	588,00
-7226,38	631,00
-7208,26	592,00
-7190,18	577,00
-7172,14	574,00
-7154,12	560,00
-7136,15	558,00
-7118,20	719,00
-7100,29	770,00
-7082,41	609,00
-7064,57	552,00
-7046,76	610,00
-7028,98	479,00
-7011,24	581,00
-6993,53	496,00
-6975,85	463,00
-6958,20	394,00
-6940,59	435,00
-6923,01	350,00
-6905,46	637,00
-6887,94	431,00
-6870,46	-1677,00
-6853,01	540,00
-6835,59	540,00
-6818,21	548,00
-6800,85	492,00
-6783,53	376,00
-6766,24	407,00
-6748,98	483,00
-6731,76	435,00
-6714,56	254,00
-6697,40	390,00
-6680,26	388,00
-6663,16	441,00
-6646,09	435,00
-6629,05	511,00
-6612,05	479,00
-6595,07	365,00
-6578,13	398,00
-6561,21	357,00
-6544,33	454,00
-6527,47	305,00
-6510,65	381,00
-6493,86	229,00
-6477,10	323,00
-6460,36	417,00
-6443,66	364,00
-6426,99	312,00
-6410,35	445,00
-6393,74	392,00
-6377,16	265,00
-6360,61	377,00
-6344,09	240,00
-6327,59	398,00
-6311,13	492,00
-6294,70	367,00
-6278,29	311,00
-6261,92	429,00
-6245,58	467,00
-6229,26	541,00
-6212,97	466,00
-6196,72	294,00
-6180,49	394,00
-6164,29	280,00
-6148,12	551,00
-6131,98	445,00
-6115,86	333,00
-6099,78	324,00
-6083,72	297,00
-6067,69	366,00
-6051,69	270,00
-6035,72	321,00
-6019,78	413,00
-6003,87	451,00
-5987,98	369,00
-5972,12	380,00
-5956,29	306,00
-5940,49	219,00
-5924,71	484,00
-5908,96	378,00
-5893,24	351,00
-5877,55	342,00
-5861,89	465,00
-5846,25	260,00
-5830,64	305,00
-5815,05	317,00
-5799,50	302,00
-5783,97	371,00
-5768,47	381,00
-5752,99	496,00
-5737,55	319,00
-5722,12	366,00
-5706,73	376,00
-5691,36	460,00
-5676,02	362,00
-5660,71	322,00
-5645,42	325,00
-5630,16	318,00
-5614,92	405,00
-5599,71	373,00
-5584,53	360,00
-5569,37	353,00
-5554,24	1298,00
-5539,14	366,00
-5524,06	474,00
-5509,01	393,00
-5493,98	377,00
-5478,98	354,00
-5464,00	358,00
-5449,05	355,00
-5434,13	384,00
-5419,23	293,00
-5404,36	322,00
-5389,51	335,00
-5374,69	387,00
-5359,89	404,00
-5345,12	564,00
-5330,37	478,00
-5315,65	383,00
-5300,95	444,00
-5286,28	411,00
-5271,63	297,00
-5257,01	353,00
-5242,41	391,00
-5227,84	314,00
-5213,29	338,00
-5198,76	472,00
-5184,26	327,00
-5169,79	325,00
-5155,33	357,00
-5140,91	429,00
-5126,51	345,00
-5112,13	376,00
-5097,77	359,00
-5083,44	405,00
-5069,13	344,00
-5054,85	346,00
-5040,59	402,00
-5026,36	422,00
-5012,15	427,00
-4997,96	377,00
-4983,80	431,00
-4969,66	345,00
-4955,54	281,00
-4941,44	445,00
-4927,37	316,00
-4913,33	402,00
-4899,30	304,00
-4885,30	441,00
-4871,33	329,00
-4857,37	322,00
-4843,44	276,00
-4829,53	406,00
-4815,65	356,00
-4801,79	269,00
-4787,95	452,00
-4774,13	293,00
-4760,34	357,00
-4746,56	436,00
-4732,82	263,00
-4719,09	398,00
-4705,38	449,00
-4691,70	467,00
-4678,04	491,00
-4664,41	501,00
-4650,79	452,00
-4637,20	336,00
-4623,63	338,00
-4610,08	437,00
-4596,56	438,00
-4583,05	302,00
-4569,57	399,00
-4556,11	389,00
-4542,67	376,00
-4529,25	392,00
-4515,86	288,00
-4502,49	352,00
-4489,13	372,00
-4475,80	541,00
-4462,49	189,00
-4449,21	395,00
-4435,94	399,00
-4422,70	276,00
-4409,47	315,00
-4396,27	380,00
-4383,09	362,00
-4369,93	435,00
-4356,79	329,00
-4343,67	359,00
-4330,58	410,00
-4317,50	382,00
-4304,45	382,00
-4291,41	474,00
-4278,40	342,00
-4265,41	396,00
-4252,44	409,00
-4239,49	385,00
-4226,55	434,00
-4213,65	325,00
-4200,76	413,00
-4187,89	426,00
-4175,04	272,00
-4162,21	261,00
-4149,40	349,00
-4136,61	395,00
-4123,85	357,00
-4111,10	390,00
-4098,37	433,00
-4085,66	385,00
-4072,98	259,00
-4060,31	301,00
-4047,66	458,00
-4035,04	476,00
-4022,43	332,00
-4009,84	333,00
-3997,27	282,00
-3984,72	369,00
-3972,19	331,00
-3959,69	453,00
-3947,20	368,00
-3934,73	380,00
-3922,27	291,00
-3909,84	321,00
-3897,43	455,00
-3885,04	412,00
-3872,67	410,00
-3860,31	333,00
-3847,98	381,00
-3835,66	409,00
-3823,36	422,00
-3811,09	323,00
-3798,83	394,00
-3786,59	424,00
-3774,37	451,00
-3762,17	327,00
-3749,98	360,00
-3737,82	348,00
-3725,67	410,00
-3713,55	306,00
-3701,44	431,00
-3689,35	368,00
-3677,28	465,00
-3665,22	309,00
-3653,19	353,00
-3641,17	327,00
-3629,18	462,00
-3617,20	376,00
-3605,24	356,00
-3593,30	423,00
-3581,37	461,00
-3569,47	369,00
-3557,58	432,00
-3545,71	419,00
-3533,86	405,00
-3522,02	353,00
-3510,21	441,00
-3498,41	323,00
-3486,63	334,00
-3474,87	288,00
-3463,12	407,00
-3451,40	318,00
-3439,69	295,00
-3428,00	382,00
-3416,33	327,00
-3404,67	348,00
-3393,03	393,00
-3381,41	365,00
-3369,81	358,00
-3358,22	434,00
-3346,66	446,00
-3335,10	374,00
-3323,57	354,00
-3312,06	375,00
-3300,56	377,00
-3289,08	336,00
-3277,61	444,00
-3266,16	383,00
-3254,73	313,00
-3243,32	423,00
-3231,92	304,00
-3220,55	388,00
-3209,18	481,00
-3197,84	329,00
-3186,51	319,00
-3175,20	354,00
-3163,90	337,00
-3152,63	522,00
-3141,36	340,00
-3130,12	292,00
-3118,89	454,00
-3107,68	319,00
-3096,49	362,00
-3085,31	360,00
-3074,15	386,00
-3063,00	352,00
-3051,87	420,00
-3040,76	335,00
-3029,67	442,00
-3018,59	485,00
-3007,52	553,00
-2996,48	376,00
-2985,44	358,00
-2974,43	401,00
-2963,43	336,00
-2952,45	421,00
-2941,48	394,00
-2930,53	376,00
-2919,60	344,00
-2908,68	420,00
-2897,78	416,00
-2886,89	403,00
-2876,02	413,00
-2865,17	292,00
-2854,33	359,00
-2843,50	349,00
-2832,70	372,00
-2821,90	407,00
-2811,13	432,00
-2800,37	369,00
-2789,62	349,00
-2778,89	392,00
-2768,18	401,00
-2757,48	433,00
-2746,80	379,00
-2736,13	345,00
-2725,48	481,00
-2714,84	412,00
-2704,22	405,00
-2693,61	332,00
-2683,02	397,00
-2672,45	392,00
-2661,89	421,00
-2651,34	284,00
-2640,81	388,00
-2630,30	402,00
-2619,80	308,00
-2609,31	363,00
-2598,84	337,00
-2588,39	340,00
-2577,95	387,00
-2567,52	253,00
-2557,11	344,00
-2546,71	402,00
-2536,33	470,00
-2525,97	346,00
-2515,62	500,00
-2505,28	375,00
-2494,96	424,00
-2484,65	399,00
-2474,36	619,00
-2464,08	269,00
-2453,82	484,00
-2443,57	394,00
-2433,33	286,00
-2423,11	425,00
-2412,91	427,00
-2402,72	366,00
-2392,54	357,00
-2382,38	364,00
-2372,23	428,00
-2362,09	-2801,00
-2351,97	437,00
-2341,87	264,00
-2331,78	471,00
-2321,70	433,00
-2311,64	407,00
-2301,59	356,00
-2291,55	403,00
-2281,53	436,00
-2271,53	293,00
-2261,53	445,00
-2251,55	300,00
-2241,59	410,00
-2231,64	426,00
-2221,70	415,00
-2211,78	356,00
-2201,87	392,00
-2191,97	445,00
-2182,09	338,00
-2172,22	383,00
-2162,37	303,00
-2152,53	373,00
-2142,70	397,00
-2132,89	396,00
-2123,09	469,00
-2113,30	384,00
-2103,53	359,00
-2093,77	431,00
-2084,02	360,00
-2074,29	405,00
-2064,57	355,00
-2054,86	410,00
-2045,17	466,00
-2035,49	322,00
-2025,82	346,00
-2016,17	302,00
-2006,53	324,00
-1996,91	411,00
-1987,29	323,00
-1977,69	385,00
-1968,11	381,00
-1958,53	324,00
-1948,97	324,00
-1939,42	344,00
-1929,89	384,00
-1920,37	411,00
-1910,86	344,00
-1901,36	313,00
-1891,88	399,00
-1882,41	419,00
-1872,95	446,00
-1863,51	417,00
-1854,08	333,00
-1844,66	416,00
-1835,26	426,00
-1825,86	481,00
-1816,48	288,00
-1807,11	475,00
-1797,76	343,00
-1788,42	385,00
-1779,09	362,00
-1769,77	361,00
-1760,47	363,00
-1751,17	324,00
-1741,89	376,00
-1732,63	422,00
-1723,37	474,00
-1714,13	414,00
-1704,90	412,00
-1695,68	471,00
-1686,48	340,00
-1677,29	374,00
-1668,11	369,00
-1658,94	278,00
-1649,78	354,00
-1640,64	381,00
-1631,51	276,00
-1622,39	487,00
-1613,28	356,00
-1604,19	428,00
-1595,10	379,00
-1586,03	284,00
-1576,97	502,00
-1567,93	371,00
-1558,89	348,00
-1549,87	427,00
-1540,86	324,00
-1531,86	364,00
-1522,87	307,00
-1513,90	458,00
-1504,93	396,00
-1495,98	472,00
-1487,04	377,00
-1478,12	302,00
-1469,20	423,00
-1460,30	316,00
-1451,40	495,00
-1442,52	403,00
-1433,65	461,00
-1424,80	412,00
-1415,95	343,00
-1407,12	453,00
-1398,30	339,00
-1389,48	510,00
-1380,69	368,00
-1371,90	300,00
-1363,12	448,00
-1354,36	466,00
-1345,60	346,00
-1336,86	321,00
-1328,13	425,00
-1319,41	433,00
-1310,70	412,00
-1302,01	332,00
-1293,32	340,00
-1284,65	407,00
-1275,99	472,00
-1267,33	535,00
-1258,69	471,00
-1250,06	364,00
-1241,45	328,00
-1232,84	571,00
-1224,25	390,00
-1215,66	401,00
-1207,09	364,00
-1198,53	342,00
-1189,97	354,00
-1181,43	393,00
-1172,91	361,00
-1164,39	418,00
-1155,88	359,00
-1147,38	269,00
-1138,90	326,00
-1130,43	339,00
-1121,96	358,00
-1113,51	351,00
-1105,07	449,00
-1096,64	452,00
-1088,22	346,00
-1079,81	356,00
-1071,41	380,00
-1063,02	390,00
-1054,65	398,00
-1046,28	404,00
-1037,92	400,00
-1029,58	360,00
-1021,24	402,00
-1012,92	557,00
-1004,61	372,00
-996,30	477,00
-988,01	329,00
-979,73	399,00
-971,46	435,00
-963,20	356,00
-954,95	376,00
-946,71	408,00
-938,48	415,00
-930,26	372,00
-922,06	382,00
-913,86	326,00
-905,67	345,00
-897,49	432,00
-889,33	278,00
-881,17	404,00
-873,02	397,00
-864,89	344,00
-856,76	349,00
-848,65	429,00
-840,54	435,00
-832,45	372,00
-824,36	284,00
-816,29	451,00
-808,22	353,00
-800,17	412,00
-792,12	335,00
-784,09	374,00
-776,06	232,00
-768,05	407,00
-760,04	406,00
-752,05	338,00
-744,07	422,00
-736,09	449,00
-728,13	290,00
-720,17	426,00
-712,23	449,00
-704,29	317,00
-696,37	387,00
-688,45	549,00
-680,55	352,00
-672,65	434,00
-664,77	355,00
-656,89	362,00
-649,03	293,00
-641,17	386,00
-633,32	346,00
-625,49	445,00
-617,66	411,00
-609,84	455,00
-602,03	376,00
-594,23	464,00
-586,45	409,00
-578,67	417,00
-570,90	458,00
-563,14	415,00
-555,39	432,00
-547,65	347,00
-539,91	442,00
-532,19	445,00
-524,48	387,00
-516,78	407,00
-509,08	485,00
-501,40	417,00
-493,72	436,00
-486,06	419,00
-478,40	479,00
-470,76	249,00
-463,12	430,00
-455,49	341,00
-447,87	384,00
-440,26	411,00
-432,66	416,00
-425,07	366,00
-417,49	436,00
-409,92	315,00
-402,35	336,00
-394,80	286,00
-387,25	441,00
-379,72	465,00
-372,19	483,00
-364,67	419,00
-357,17	404,00
-349,67	434,00
-342,18	478,00
-334,69	463,00
-327,22	398,00
-319,76	423,00
-312,30	459,00
-304,86	451,00
-297,42	450,00
-290,00	382,00
-282,58	456,00
-275,17	448,00
-267,77	542,00
-260,37	485,00
-252,99	568,00
-245,62	537,00
-238,25	535,00
-230,90	519,00
-223,55	561,00
-216,21	501,00
-208,88	620,00
-201,56	609,00
-194,25	655,00
-186,94	757,00
-179,65	700,00
-172,36	778,00
-165,08	778,00
-157,81	848,00
-150,55	954,00
-143,30	916,00
-136,06	931,00
-128,82	1040,00
-121,60	1124,00
-114,38	1237,00
-107,17	1412,00
-99,97	1487,00
-92,78	1620,00
-85,60	1791,00
-78,42	2002,00
-71,25	2345,00
-64,10	2633,00
-56,95	2943,00
-49,81	3453,00
-42,67	4376,00
-35,55	5203,00
-28,43	6839,00
-21,33	11156,00
-14,23	34590,00
-7,14	57498,00
-0,05	57284,00
7,02	57012,00
14,09	57319,00
21,14	30916,00
28,19	13618,00
35,23	8536,00
42,27	6783,00
49,29	5352,00
56,31	4763,00
63,32	4085,00
70,32	3450,00
77,31	3016,00
84,29	2613,00
91,27	2397,00
98,23	2231,00
105,19	2175,00
112,14	2684,00
119,09	4432,00
126,02	7472,00
132,95	9232,00
139,87	9715,00
146,78	10110,00
153,68	9977,00
160,58	10045,00
167,46	9951,00
174,34	9998,00
181,21	9942,00
188,08	9898,00
194,93	10073,00
201,78	10081,00
208,62	10125,00
215,45	10074,00
222,27	10125,00
229,09	10199,00
235,90	10203,00
242,70	10017,00
249,49	10046,00
256,27	9972,00
263,05	10090,00
269,82	10080,00
276,58	10040,00
283,33	9883,00
290,08	9969,00
296,82	9843,00
303,55	9797,00
310,27	9697,00
316,98	9713,00
323,69	9703,00
330,39	9691,00
337,08	9659,00
343,76	9678,00
350,44	9768,00
357,11	9705,00
363,77	9705,00
370,42	9621,00
377,07	9648,00
383,71	9801,00
390,34	9653,00
396,96	9721,00
403,58	9780,00
410,19	9919,00
416,79	9861,00
423,38	9919,00
429,97	9806,00
436,55	9645,00
443,12	9510,00
449,68	9545,00
456,24	9410,00
462,79	9440,00
469,33	9361,00
475,86	9371,00
482,39	9252,00
488,91	9254,00
495,42	9306,00
501,93	9238,00
508,42	9159,00
514,91	9161,00
521,40	9128,00
527,87	9104,00
534,34	9024,00
540,80	9035,00
547,25	9114,00
553,70	8996,00
560,14	9082,00
566,57	9191,00
573,00	9104,00
579,41	9148,00
585,83	9045,00
592,23	9090,00
598,62	9006,00
605,01	8934,00
611,40	9044,00
617,77	8857,00
624,14	9018,00
630,50	8883,00
636,85	8896,00
643,20	8850,00
649,54	8719,00
655,87	8715,00
662,20	8749,00
668,52	8663,00
674,83	8624,00
681,13	8499,00
687,43	8607,00
693,72	8436,00
700,00	8505,00
706,28	8542,00
712,55	8509,00
718,81	8525,00
725,07	8543,00
731,32	8577,00
737,56	8668,00
743,79	8514,00
750,02	8499,00
756,24	8481,00
762,46	8478,00
768,67	8546,00
774,87	8502,00
781,06	8541,00
787,25	8499,00
793,43	8513,00
799,60	8474,00
805,77	8440,00
811,93	8481,00
818,08	8471,00
824,23	8318,00
830,37	8536,00
836,50	8435,00
842,63	8310,00
848,75	8367,00
854,87	8252,00
860,97	8284,00
867,07	8210,00
873,17	8217,00
879,25	8224,00
885,33	8181,00
891,41	8153,00
897,47	8156,00
903,53	8069,00
909,59	7953,00
915,63	8119,00
921,67	7924,00
927,71	8001,00
933,74	8030,00
939,76	7895,00
945,77	7864,00
951,78	8075,00
957,78	7904,00
963,78	7999,00
969,77	8036,00
975,75	7980,00
981,72	7845,00
987,69	8579,00
993,66	8114,00
999,61	7872,00
1005,56	7990,00
1011,51	7959,00
1017,44	7857,00
1023,37	7894,00
1029,30	7996,00
1035,22	7923,00
1041,13	7945,00
1047,03	8188,00
1052,93	8105,00
1058,83	8355,00
1064,71	8437,00
1070,59	8348,00
1076,47	8070,00
1082,33	8022,00
1088,20	8024,00
1094,05	7896,00
1099,90	7601,00
1105,74	7812,00
1111,58	7833,00
1117,41	7718,00
1123,23	7959,00
1129,05	8158,00
1134,86	8210,00
1140,67	7851,00
1146,47	7886,00
1152,26	7883,00
1158,05	7750,00
1163,83	7731,00
1169,60	7737,00
1175,37	7722,00
1181,13	7817,00
1186,89	7606,00
1192,64	7678,00
1198,38	7906,00
1204,12	7501,00
1209,85	7766,00
1215,58	7743,00
1221,30	7667,00
1227,02	7794,00
1232,72	7722,00
1238,43	7705,00
1244,12	7618,00
1249,81	7746,00
1255,50	7812,00
1261,17	7808,00
1266,85	7741,00
1272,51	7761,00
1278,17	7796,00
1283,83	7812,00
1289,47	8138,00
1295,12	8434,00
1300,75	8322,00
1306,38	8154,00
1312,01	7960,00
1317,63	7822,00
1323,24	7686,00
1328,85	7620,00
1334,45	7622,00
1340,04	7680,00
1345,63	7679,00
1351,22	7779,00
1356,80	7760,00
1362,37	7800,00
1367,93	7775,00
1373,49	7710,00
1379,05	7714,00
1384,60	7655,00
1390,14	7752,00
1395,68	7712,00
1401,21	7705,00
1406,74	7737,00
1412,26	7901,00
1417,77	8025,00
1423,28	7915,00
1428,78	8145,00
1434,28	8288,00
1439,77	8493,00
1445,26	8461,00
1450,74	8381,00
1456,22	8233,00
1461,68	8155,00
1467,15	8006,00
1472,61	7827,00
1478,06	7843,00
1483,51	7617,00
1488,95	7480,00
1494,38	7478,00
1499,81	7404,00
1505,24	7368,00
1510,65	7319,00
1516,07	7245,00
1521,48	7204,00
1526,88	7042,00
1532,27	7096,00
1537,67	7077,00
1543,05	7156,00
1548,43	7037,00
1553,81	7029,00
1559,18	6824,00
1564,54	7081,00
1569,90	6914,00
1575,25	6923,00
1580,60	6784,00
1585,94	6952,00
1591,28	6862,00
1596,61	6811,00
1601,93	6986,00
1607,25	6826,00
1612,57	6767,00
1617,88	6705,00
1623,18	6884,00
1628,48	6759,00
1633,77	6514,00
1639,06	6625,00
1644,34	6638,00
1649,62	6456,00
1654,89	6501,00
1660,16	6444,00
1665,42	6599,00
1670,67	6526,00
1675,92	6299,00
1681,17	6470,00
1686,41	6479,00
1691,64	6358,00
1696,87	6371,00
1702,10	6263,00
1707,32	6322,00
1712,53	6210,00
1717,74	6139,00
1722,94	6211,00
1728,14	6103,00
1733,33	6166,00
1738,52	6039,00
1743,70	6082,00
1748,88	6021,00
1754,05	5970,00
1759,22	6018,00
1764,38	6063,00
1769,53	6067,00
1774,69	5912,00
1779,83	5774,00
1784,97	5691,00
1790,11	5766,00
1795,24	5706,00
1800,36	5661,00
1805,48	5588,00
1810,60	5767,00
1815,71	5623,00
1820,82	5651,00
1825,92	5709,00
1831,01	5546,00
1836,10	5672,00
1841,19	5721,00
1846,26	5555,00
1851,34	5605,00
1856,41	5692,00
1861,47	5480,00
1866,53	5589,00
1871,59	5435,00
1876,64	5379,00
1881,68	5422,00
1886,72	5390,00
1891,76	5371,00
1896,79	5311,00
1901,81	5265,00
1906,83	5293,00
1911,85	5195,00
1916,86	5162,00
1921,86	5102,00
1926,86	5046,00
1931,86	5150,00
1936,85	4938,00
1941,83	4882,00
1946,81	4986,00
1951,79	4784,00
1956,76	4875,00
1961,72	4963,00
1966,68	4945,00
1971,64	4793,00
1976,59	4914,00
1981,54	4892,00
1986,48	4727,00
1991,42	4768,00
1996,35	4757,00
2001,27	4684,00
2006,20	4723,00
2011,11	4718,00
2016,03	4698,00
2020,93	4597,00
2025,84	4655,00
2030,73	4736,00
2035,63	4570,00
2040,52	4527,00
2045,40	4478,00
2050,28	4567,00
2055,15	4491,00
2060,02	4390,00
2064,89	4391,00
2069,75	4471,00
2074,60	4481,00
2079,46	4340,00
2084,30	4400,00
2089,14	4258,00
2093,98	4417,00
2098,81	4347,00
2103,64	4332,00
2108,46	4396,00
2113,28	4411,00
2118,09	4367,00
2122,90	4377,00
2127,70	4226,00
2132,50	4249,00
2137,30	4321,00
2142,09	4244,00
2146,87	4279,00
2151,66	4131,00
2156,43	4178,00
2161,20	4228,00
2165,97	4054,00
2170,73	4058,00
2175,49	4098,00
2180,24	4125,00
2184,99	4041,00
2189,74	4098,00
2194,48	4056,00
2199,21	3997,00
2203,94	4048,00
2208,67	3871,00
2213,39	3905,00
2218,11	3865,00
2222,82	3773,00
2227,53	3968,00
2232,23	3823,00
2236,93	3834,00
2241,63	3811,00
2246,32	3818,00
2251,00	3764,00
2255,68	3760,00
2260,36	3667,00
2265,03	3827,00
2269,70	3756,00
2274,36	3660,00
2279,02	3667,00
2283,68	3653,00
2288,33	3676,00
2292,97	3583,00
2297,61	3604,00
2302,25	3685,00
2306,88	3547,00
2311,51	3468,00
2316,14	3556,00
2320,75	3483,00
2325,37	3401,00
2329,98	3431,00
2334,59	3478,00
2339,19	3435,00
2343,79	3388,00
2348,38	3391,00
2352,97	3335,00
2357,55	3335,00
2362,13	3307,00
2366,71	3303,00
2371,28	3360,00
2375,85	3179,00
2380,41	3159,00
2384,97	3236,00
2389,52	3214,00
2394,07	3217,00
2398,62	3054,00
2403,16	3258,00
2407,70	3023,00
2412,23	3031,00
2416,76	3138,00
2421,29	3064,00
2425,81	3161,00
2430,32	3040,00
2434,84	2914,00
2439,34	2913,00
2443,85	3032,00
2448,35	2939,00
2452,84	2913,00
2457,33	2937,00
2461,82	2740,00
2466,30	2833,00
2470,78	2794,00
2475,25	2701,00
2479,72	2807,00
2484,19	2835,00
2488,65	2835,00
2493,11	2689,00
2497,56	2870,00
2502,01	2706,00
2506,46	2725,00
2510,90	2746,00
2515,34	2690,00
2519,77	2654,00
2524,20	2623,00
2528,62	2650,00
2533,04	2692,00
2537,46	2655,00
2541,87	2615,00
2546,28	2561,00
2550,68	2605,00
2555,08	2571,00
2559,48	2458,00
2563,87	2469,00
2568,26	2357,00
2572,64	2499,00
2577,02	2495,00
2581,40	2409,00
2585,77	2417,00
2590,14	2296,00
2594,50	2412,00
2598,86	2339,00
2603,22	2301,00
2607,57	2254,00
2611,92	2222,00
2616,26	2280,00
2620,60	2331,00
2624,94	2189,00
2629,27	2245,00
2633,60	2175,00
2637,92	2230,00
2642,24	2273,00
2646,56	2178,00
2650,87	2133,00
2655,18	2246,00
2659,48	2148,00
2663,78	2089,00
2668,08	2046,00
2672,37	2111,00
2676,66	2075,00
2680,95	1993,00
2685,23	2113,00
2689,50	2071,00
2693,78	2072,00
2698,05	2146,00
2702,31	2086,00
2706,57	2183,00
2710,83	2104,00
2715,08	2161,00
2719,33	2171,00
2723,58	2168,00
2727,82	2108,00
2732,06	2145,00
2736,29	2095,00
2740,53	2122,00
2744,75	1960,00
2748,97	1990,00
2753,19	2014,00
2757,41	1973,00
2761,62	1971,00
2765,83	1930,00
2770,03	2007,00
2774,23	1994,00
2778,43	1932,00
2782,62	1876,00
2786,81	2006,00
2791,00	1966,00
2795,18	1925,00
2799,35	1927,00
2803,53	1944,00
2807,70	1927,00
2811,86	1929,00
2816,03	2055,00
2820,19	2025,00
2824,34	1994,00
2828,49	2028,00
2832,64	2094,00
2836,78	2191,00
2840,92	2284,00
2845,06	2540,00
2849,19	2734,00
2853,32	2634,00
2857,45	2641,00
2861,57	2712,00
2865,69	2658,00
2869,80	2587,00
2873,91	2607,00
2878,02	2757,00
2882,12	2702,00
2886,22	2736,00
2890,32	2587,00
2894,41	2531,00
2898,50	2545,00
2902,58	2445,00
2906,67	2351,00
2910,74	2236,00
2914,82	2128,00
2918,89	2264,00
2922,96	2020,00
2927,02	1998,00
2931,08	1938,00
2935,13	1870,00
2939,19	1832,00
2943,24	1715,00
2947,28	1821,00
2951,32	1594,00
2955,36	1558,00
2959,40	1608,00
2963,43	1631,00
2967,46	1504,00
2971,48	1552,00
2975,50	1410,00
2979,52	1430,00
2983,53	1443,00
2987,54	1362,00
2991,55	1349,00
2995,55	1401,00
2999,55	1370,00
3003,54	1309,00
3007,54	1333,00
3011,53	1324,00
3015,51	1373,00
3019,49	1296,00
3023,47	1183,00
3027,45	1225,00
3031,42	1163,00
3035,39	1196,00
3039,35	1195,00
3043,31	1324,00
3047,27	1171,00
3051,22	1110,00
3055,17	1159,00
3059,12	1130,00
3063,06	1172,00
3067,00	1117,00
3070,94	1040,00
3074,87	1198,00
3078,80	1150,00
3082,73	1144,00
3086,65	1056,00
3090,57	1025,00
3094,49	1154,00
3098,40	986,00
3102,31	1064,00
3106,22	926,00
3110,12	1047,00
3114,02	903,00
3117,92	957,00
3121,81	1002,00
3125,70	1014,00
3129,58	1012,00
3133,47	905,00
3137,34	1030,00
3141,22	1091,00
3145,09	892,00
3148,96	890,00
3152,83	1006,00
3156,69	952,00
3160,55	937,00
3164,40	931,00
3168,26	947,00
3172,10	1018,00
3175,95	975,00
3179,79	954,00
3183,63	993,00
3187,47	882,00
3191,30	951,00
3195,13	835,00
3198,95	815,00
3202,78	826,00
3206,60	882,00
3210,41	831,00
3214,23	791,00
3218,03	853,00
3221,84	816,00
3225,64	810,00
3229,44	785,00
3233,24	773,00
3237,03	816,00
3240,82	769,00
3244,61	762,00
3248,39	752,00
3252,17	798,00
3255,95	890,00
3259,72	834,00
3263,49	845,00
3267,26	748,00
3271,03	772,00
3274,79	782,00
3278,54	847,00
3282,30	660,00
3286,05	724,00
3289,80	801,00
3293,54	751,00
3297,29	802,00
3301,02	666,00
3304,76	692,00
3308,49	721,00
3312,22	691,00
3315,95	589,00
3319,67	608,00
3323,39	759,00
3327,10	667,00
3330,82	670,00
3334,53	709,00
3338,24	617,00
3341,94	597,00
3345,64	613,00
3349,34	609,00
3353,03	680,00
3356,72	581,00
3360,41	661,00
3364,10	541,00
3367,78	696,00
3371,46	619,00
3375,13	675,00
3378,81	636,00
3382,48	607,00
3386,14	615,00
3389,81	636,00
3393,47	657,00
3397,12	598,00
3400,78	594,00
3404,43	611,00
3408,08	609,00
3411,72	515,00
3415,36	480,00
3419,00	588,00
3422,64	557,00
3426,27	564,00
3429,90	530,00
3433,53	533,00
3437,15	563,00
3440,77	468,00
3444,39	489,00
3448,00	572,00
3451,62	537,00
3455,22	595,00
3458,83	492,00
3462,43	593,00
3466,03	623,00
3469,63	429,00
3473,22	495,00
3476,81	408,00
3480,40	524,00
3483,99	536,00
3487,57	494,00
3491,15	543,00
3494,72	591,00
3498,29	567,00
3501,86	465,00
3505,43	449,00
3508,99	462,00
3512,56	364,00
3516,11	492,00
3519,67	428,00
3523,22	522,00
3526,77	440,00
3530,32	611,00
3533,86	517,00
3537,40	463,00
3540,94	439,00
3544,47	502,00
3548,00	357,00
3551,53	498,00
3555,06	480,00
3558,58	516,00
3562,10	549,00
3565,62	324,00
3569,13	427,00
3572,64	566,00
3576,15	319,00
3579,66	420,00
3583,16	498,00
3586,66	444,00
3590,16	457,00
3593,65	462,00
3597,14	405,00
3600,63	431,00
3604,11	415,00
3607,60	469,00
3611,08	426,00
3614,55	409,00
3618,03	495,00
3621,50	365,00
3624,97	337,00
3628,43	414,00
3631,90	351,00
3635,36	340,00
3638,81	437,00
3642,27	358,00
3645,72	354,00
3649,17	371,00
3652,61	381,00
3656,06	358,00
3659,50	404,00
3662,93	390,00
3666,37	412,00
3669,80	463,00
3673,23	491,00
3676,65	379,00
3680,08	419,00
3683,50	401,00
3686,92	360,00
3690,33	360,00
3693,74	388,00
3697,15	364,00
3700,56	424,00
3703,96	319,00
3707,36	304,00
3710,76	330,00
3714,16	330,00
3717,55	338,00
3720,94	250,00
3724,33	430,00
3727,71	343,00
3731,10	366,00
3734,48	386,00
3737,85	279,00
3741,23	406,00
3744,60	340,00
3747,97	254,00
3751,33	324,00
3754,69	405,00
3758,05	286,00
3761,41	267,00
3764,77	254,00
3768,12	308,00
3771,47	195,00
3774,82	334,00
3778,16	-1,00
3781,50	6,00
3784,84	0,00
3788,18	6,00
>>>>>End Processed Spectral Data<<<<<
