SpectraSuite Data File
++++++++++++++++++++++++++++++++++++
Date: Mon Jan 05 16:24:43 ICT 2026
User: Administrator
Dark Spectrum Present: Yes
Reference Spectrum Present: No
Number of Sampled Component Spectra: 1
Spectrometers: MAYP113682
Integration Time (usec): 3000000 (MAYP113682)
Spectra Averaged: 1 (MAYP113682)
Boxcar Smoothing: 0 (MAYP113682)
Correct for Electrical Dark: No (MAYP113682)
Strobe/Lamp Enabled: No (MAYP113682)
Correct for Detector Non-linearity: No (MAYP113682)
Correct for Stray Light: No (MAYP113682)
Number of Pixels in Processed Spectrum: 2068
>>>>>Begin Processed Spectral Data<<<<<
-37534,58	14,00
-37414,56	6,00
-37295,11	-2,00
-37176,24	-2,00
-37057,95	258,00
-36940,22	281,00
-36823,05	261,00
-36706,45	373,00
-36590,40	314,00
-36474,90	320,00
-36359,95	407,00
-36245,55	428,00
-36131,68	385,00
-36018,35	367,00
-35905,55	337,00
-35793,29	459,00
-35681,54	318,00
-35570,32	369,00
-35459,62	383,00
-35349,43	384,00
-35239,75	413,00
-35130,58	357,00
-35021,91	355,00
-34913,74	435,00
-34806,07	355,00
-34698,89	423,00
-34592,20	332,00
-34486,00	387,00
-34380,28	413,00
-34275,04	369,00
-34170,27	386,00
-34065,98	362,00
-33962,16	381,00
-33858,81	440,00
-33755,92	325,00
-33653,49	387,00
-33551,52	421,00
-33450,01	338,00
-33348,94	376,00
-33248,33	388,00
-33148,16	415,00
-33048,43	312,00
-32949,14	475,00
-32850,29	418,00
-32751,87	383,00
-32653,89	427,00
-32556,33	294,00
-32459,20	374,00
-32362,49	364,00
-32266,19	385,00
-32170,32	322,00
-32074,86	390,00
-31979,82	419,00
-31885,18	372,00
-31790,95	425,00
-31697,12	431,00
-31603,69	454,00
-31510,67	383,00
-31418,04	393,00
-31325,80	391,00
-31233,95	369,00
-31142,49	391,00
-31051,42	364,00
-30960,73	454,00
-30870,43	466,00
-30780,50	445,00
-30690,95	368,00
-30601,77	487,00
-30512,97	343,00
-30424,53	403,00
-30336,46	409,00
-30248,76	424,00
-30161,42	465,00
-30074,44	429,00
-29987,81	423,00
-29901,55	450,00
-29815,63	327,00
-29730,07	441,00
-29644,86	457,00
-29560,00	339,00
-29475,48	456,00
-29391,30	404,00
-29307,47	411,00
-29223,97	377,00
-29140,81	405,00
-29057,99	369,00
-28975,50	362,00
-28893,34	476,00
-28811,51	352,00
-28730,00	448,00
-28648,82	453,00
-28567,97	370,00
-28487,43	408,00
-28407,21	437,00
-28327,32	387,00
-28247,73	457,00
-28168,46	427,00
-28089,50	471,00
-28010,85	322,00
-27932,51	365,00
-27854,48	371,00
-27776,75	342,00
-27699,32	410,00
-27622,19	393,00
-27545,37	463,00
-27468,84	454,00
-27392,60	437,00
-27316,66	390,00
-27241,01	370,00
-27165,66	433,00
-27090,59	307,00
-27015,81	464,00
-26941,31	484,00
-26867,10	291,00
-26793,17	392,00
-26719,52	393,00
-26646,15	375,00
-26573,06	358,00
-26500,24	355,00
-26427,70	428,00
-26355,43	302,00
-26283,43	420,00
-26211,71	373,00
-26140,25	442,00
-26069,06	406,00
-25998,13	349,00
-25927,46	367,00
-25857,06	346,00
-25786,92	388,00
-25717,04	342,00
-25647,42	416,00
-25578,05	441,00
-25508,94	359,00
-25440,09	395,00
-25371,48	370,00
-25303,13	488,00
-25235,02	320,00
-25167,17	386,00
-25099,56	351,00
-25032,19	448,00
-24965,07	376,00
-24898,20	338,00
-24831,56	366,00
-24765,17	390,00
-24699,01	380,00
-24633,10	405,00
-24567,41	408,00
-24501,97	301,00
-24436,75	437,00
-24371,77	429,00
-24307,03	336,00
-24242,51	417,00
-24178,22	388,00
-24114,16	364,00
-24050,32	373,00
-23986,71	419,00
-23923,32	430,00
-23860,16	466,00
-23797,22	378,00
-23734,50	435,00
-23672,00	346,00
-23609,71	367,00
-23547,65	317,00
-23485,80	429,00
-23424,16	315,00
-23362,74	429,00
-23301,53	402,00
-23240,54	287,00
-23179,75	347,00
-23119,17	357,00
-23058,80	320,00
-22998,64	386,00
-22938,68	423,00
-22878,93	295,00
-22819,39	264,00
-22760,04	308,00
-22700,90	283,00
-22641,96	440,00
-22583,22	369,00
-22524,68	373,00
-22466,33	373,00
-22408,19	341,00
-22350,23	287,00
-22292,48	367,00
-22234,92	391,00
-22177,55	440,00
-22120,37	456,00
-22063,38	405,00
-22006,58	300,00
-21949,98	365,00
-21893,56	253,00
-21837,33	375,00
-21781,28	296,00
-21725,42	399,00
-21669,74	472,00
-21614,25	296,00
-21558,94	445,00
-21503,81	408,00
-21448,86	433,00
-21394,10	377,00
-21339,51	413,00
-21285,10	301,00
-21230,86	365,00
-21176,81	373,00
-21122,93	365,00
-21069,22	304,00
-21015,69	324,00
-20962,33	459,00
-20909,14	308,00
-20856,13	363,00
-20803,28	435,00
-20750,61	391,00
-20698,10	308,00
-20645,76	361,00
-20593,59	465,00
-20541,59	430,00
-20489,75	477,00
-20438,07	258,00
-20386,56	416,00
-20335,22	341,00
-20284,03	351,00
-20233,01	289,00
-20182,15	338,00
-20131,45	400,00
-20080,91	319,00
-20030,52	370,00
-19980,30	371,00
-19930,23	311,00
-19880,32	394,00
-19830,56	337,00
-19780,96	415,00
-19731,52	410,00
-19682,23	520,00
-19633,09	288,00
-19584,10	304,00
-19535,26	422,00
-19486,58	430,00
-19438,04	290,00
-19389,66	452,00
-19341,42	323,00
-19293,33	334,00
-19245,39	411,00
-19197,60	434,00
-19149,95	369,00
-19102,45	360,00
-19055,09	260,00
-19007,87	402,00
-18960,80	390,00
-18913,87	415,00
-18867,09	376,00
-18820,44	468,00
-18773,94	382,00
-18727,57	441,00
-18681,35	302,00
-18635,26	362,00
-18589,31	318,00
-18543,50	350,00
-18497,83	341,00
-18452,29	403,00
-18406,89	258,00
-18361,63	451,00
-18316,50	440,00
-18271,50	324,00
-18226,63	446,00
-18181,90	401,00
-18137,30	376,00
-18092,84	324,00
-18048,50	470,00
-18004,29	368,00
-17960,22	391,00
-17916,27	350,00
-17872,45	375,00
-17828,76	454,00
-17785,20	367,00
-17741,77	434,00
-17698,46	469,00
-17655,28	369,00
-17612,22	302,00
-17569,29	333,00
-17526,48	480,00
-17483,79	390,00
-17441,23	389,00
-17398,79	392,00
-17356,48	384,00
-17314,28	468,00
-17272,21	402,00
-17230,26	405,00
-17188,42	343,00
-17146,71	415,00
-17105,12	311,00
-17063,64	361,00
-17022,28	312,00
-16981,04	344,00
-16939,92	400,00
-16898,91	462,00
-16858,02	336,00
-16817,25	317,00
-16776,59	421,00
-16736,04	464,00
-16695,61	385,00
-16655,29	339,00
-16615,09	306,00
-16574,99	344,00
-16535,01	423,00
-16495,15	444,00
-16455,39	393,00
-16415,74	356,00
-16376,21	402,00
-16336,78	352,00
-16297,46	378,00
-16258,26	341,00
-16219,16	272,00
-16180,17	426,00
-16141,28	394,00
-16102,51	427,00
-16063,84	344,00
-16025,27	360,00
-15986,82	397,00
-15948,46	413,00
-15910,22	381,00
-15872,07	307,00
-15834,04	389,00
-15796,10	376,00
-15758,27	415,00
-15720,54	430,00
-15682,91	434,00
-15645,39	482,00
-15607,97	392,00
-15570,64	344,00
-15533,42	437,00
-15496,30	396,00
-15459,28	367,00
-15422,36	408,00
-15385,54	290,00
-15348,82	491,00
-15312,19	433,00
-15275,66	345,00
-15239,23	416,00
-15202,90	298,00
-15166,67	414,00
-15130,53	472,00
-15094,48	417,00
-15058,54	272,00
-15022,68	357,00
-14986,93	330,00
-14951,26	393,00
-14915,69	461,00
-14880,22	282,00
-14844,84	410,00
-14809,55	385,00
-14774,35	394,00
-14739,25	326,00
-14704,24	475,00
-14669,32	400,00
-14634,49	332,00
-14599,75	422,00
-14565,10	394,00
-14530,55	408,00
-14496,08	372,00
-14461,70	409,00
-14427,41	373,00
-14393,21	307,00
-14359,10	365,00
-14325,07	327,00
-14291,14	295,00
-14257,29	362,00
-14223,52	375,00
-14189,85	459,00
-14156,26	382,00
-14122,76	359,00
-14089,34	317,00
-14056,01	331,00
-14022,76	343,00
-13989,60	433,00
-13956,52	473,00
-13923,53	425,00
-13890,62	215,00
-13857,79	350,00
-13825,05	307,00
-13792,39	333,00
-13759,81	496,00
-13727,31	360,00
-13694,90	451,00
-13662,57	471,00
-13630,31	353,00
-13598,14	386,00
-13566,05	316,00
-13534,05	386,00
-13502,12	378,00
-13470,27	361,00
-13438,50	372,00
-13406,80	436,00
-13375,19	388,00
-13343,66	394,00
-13312,20	487,00
-13280,83	343,00
-13249,53	412,00
-13218,30	280,00
-13187,16	365,00
-13156,09	409,00
-13125,10	428,00
-13094,18	411,00
-13063,34	364,00
-13032,58	287,00
-13001,89	391,00
-12971,28	366,00
-12940,74	430,00
-12910,27	396,00
-12879,88	404,00
-12849,57	458,00
-12819,33	450,00
-12789,16	455,00
-12759,06	313,00
-12729,04	333,00
-12699,09	163,00
-12669,21	394,00
-12639,41	423,00
-12609,68	348,00
-12580,02	360,00
-12550,43	401,00
-12520,91	368,00
-12491,46	400,00
-12462,08	294,00
-12432,77	400,00
-12403,54	333,00
-12374,37	351,00
-12345,27	429,00
-12316,24	374,00
-12287,29	296,00
-12258,40	337,00
-12229,57	398,00
-12200,82	323,00
-12172,14	353,00
-12143,52	290,00
-12114,97	371,00
-12086,49	371,00
-12058,07	419,00
-12029,73	332,00
-12001,44	392,00
-11973,23	427,00
-11945,08	392,00
-11917,00	353,00
-11888,98	375,00
-11861,03	428,00
-11833,15	359,00
-11805,32	370,00
-11777,57	337,00
-11749,88	448,00
-11722,25	341,00
-11694,69	419,00
-11667,19	385,00
-11639,75	401,00
-11612,38	338,00
-11585,07	346,00
-11557,83	458,00
-11530,65	499,00
-11503,53	264,00
-11476,47	348,00
-11449,48	317,00
-11422,54	452,00
-11395,67	433,00
-11368,86	396,00
-11342,11	309,00
-11315,43	319,00
-11288,80	307,00
-11262,23	473,00
-11235,73	312,00
-11209,28	508,00
-11182,90	383,00
-11156,57	403,00
-11130,31	447,00
-11104,10	395,00
-11077,96	352,00
-11051,87	376,00
-11025,84	306,00
-10999,87	391,00
-10973,96	397,00
-10948,11	367,00
-10922,31	464,00
-10896,58	374,00
-10870,90	380,00
-10845,28	403,00
-10819,71	291,00
-10794,20	445,00
-10768,75	409,00
-10743,36	406,00
-10718,02	320,00
-10692,74	289,00
-10667,52	355,00
-10642,35	343,00
-10617,24	475,00
-10592,18	351,00
-10567,18	308,00
-10542,23	366,00
-10517,34	332,00
-10492,51	354,00
-10467,72	417,00
-10443,00	446,00
-10418,32	384,00
-10393,70	439,00
-10369,14	382,00
-10344,63	294,00
-10320,17	388,00
-10295,77	377,00
-10271,42	300,00
-10247,12	408,00
-10222,88	453,00
-10198,68	307,00
-10174,54	356,00
-10150,46	397,00
-10126,42	506,00
-10102,44	336,00
-10078,51	298,00
-10054,63	439,00
-10030,80	388,00
-10007,03	505,00
-9983,30	378,00
-9959,63	417,00
-9936,01	448,00
-9912,44	373,00
-9888,92	378,00
-9865,44	378,00
-9842,02	400,00
-9818,65	406,00
-9795,33	279,00
-9772,06	397,00
-9748,84	353,00
-9725,67	346,00
-9702,55	347,00
-9679,47	237,00
-9656,45	397,00
-9633,47	316,00
-9610,55	373,00
-9587,67	520,00
-9564,84	575,00
-9542,06	405,00
-9519,32	459,00
-9496,64	551,00
-9474,00	377,00
-9451,41	451,00
-9428,87	337,00
-9406,37	466,00
-9383,92	297,00
-9361,52	276,00
-9339,17	382,00
-9316,86	435,00
-9294,60	541,00
-9272,38	424,00
-9250,21	589,00
-9228,09	486,00
-9206,01	677,00
-9183,98	533,00
-9162,00	409,00
-9140,06	504,00
-9118,16	425,00
-9096,31	342,00
-9074,51	511,00
-9052,75	614,00
-9031,04	589,00
-9009,37	449,00
-8987,74	402,00
-8966,16	433,00
-8944,63	419,00
-8923,14	470,00
-8901,69	395,00
-8880,29	417,00
-8858,93	507,00
-8837,61	529,00
-8816,34	546,00
-8795,11	599,00
-8773,92	440,00
-8752,78	481,00
-8731,68	414,00
-8710,62	438,00
-8689,61	419,00
-8668,63	538,00
-8647,70	587,00
-8626,82	500,00
-8605,97	608,00
-8585,17	520,00
-8564,41	449,00
-8543,69	304,00
-8523,01	419,00
-8502,37	434,00
-8481,78	414,00
-8461,23	371,00
-8440,71	513,00
-8420,24	531,00
-8399,81	679,00
-8379,42	499,00
-8359,08	479,00
-8338,77	383,00
-8318,50	349,00
-8298,27	335,00
-8278,09	480,00
-8257,94	492,00
-8237,83	502,00
-8217,76	544,00
-8197,74	549,00
-8177,75	555,00
-8157,80	377,00
-8137,89	504,00
-8118,02	383,00
-8098,19	432,00
-8078,40	386,00
-8058,65	373,00
-8038,93	492,00
-8019,26	476,00
-7999,62	555,00
-7980,02	431,00
-7960,46	354,00
-7940,94	415,00
-7921,46	423,00
-7902,01	424,00
-7882,60	515,00
-7863,23	387,00
-7843,90	422,00
-7824,61	416,00
-7805,35	436,00
-7786,13	415,00
-7766,95	508,00
-7747,80	495,00
-7728,69	427,00
-7709,62	501,00
-7690,59	541,00
-7671,59	609,00
-7652,63	432,00
-7633,70	431,00
-7614,81	460,00
-7595,96	468,00
-7577,15	473,00
-7558,37	388,00
-7539,62	401,00
-7520,91	387,00
-7502,24	289,00
-7483,60	372,00
-7465,00	483,00
-7446,44	482,00
-7427,91	304,00
-7409,41	305,00
-7390,95	344,00
-7372,53	322,00
-7354,14	394,00
-7335,78	303,00
-7317,46	385,00
-7299,18	338,00
-7280,92	278,00
-7262,71	382,00
-7244,52	312,00
-7226,38	358,00
-7208,26	307,00
-7190,18	300,00
-7172,14	345,00
-7154,12	379,00
-7136,15	307,00
-7118,20	444,00
-7100,29	434,00
-7082,41	400,00
-7064,57	312,00
-7046,76	393,00
-7028,98	238,00
-7011,24	351,00
-6993,53	219,00
-6975,85	290,00
-6958,20	266,00
-6940,59	294,00
-6923,01	181,00
-6905,46	323,00
-6887,94	271,00
-6870,46	-1874,00
-6853,01	390,00
-6835,59	366,00
-6818,21	248,00
-6800,85	383,00
-6783,53	222,00
-6766,24	214,00
-6748,98	225,00
-6731,76	250,00
-6714,56	59,00
-6697,40	161,00
-6680,26	233,00
-6663,16	172,00
-6646,09	279,00
-6629,05	266,00
-6612,05	288,00
-6595,07	139,00
-6578,13	280,00
-6561,21	190,00
-6544,33	370,00
-6527,47	132,00
-6510,65	260,00
-6493,86	148,00
-6477,10	131,00
-6460,36	353,00
-6443,66	182,00
-6426,99	176,00
-6410,35	207,00
-6393,74	248,00
-6377,16	171,00
-6360,61	275,00
-6344,09	156,00
-6327,59	170,00
-6311,13	353,00
-6294,70	273,00
-6278,29	263,00
-6261,92	240,00
-6245,58	292,00
-6229,26	251,00
-6212,97	269,00
-6196,72	227,00
-6180,49	267,00
-6164,29	147,00
-6148,12	343,00
-6131,98	335,00
-6115,86	202,00
-6099,78	189,00
-6083,72	223,00
-6067,69	278,00
-6051,69	235,00
-6035,72	300,00
-6019,78	338,00
-6003,87	339,00
-5987,98	191,00
-5972,12	179,00
-5956,29	218,00
-5940,49	184,00
-5924,71	316,00
-5908,96	327,00
-5893,24	274,00
-5877,55	275,00
-5861,89	318,00
-5846,25	123,00
-5830,64	263,00
-5815,05	296,00
-5799,50	262,00
-5783,97	299,00
-5768,47	268,00
-5752,99	251,00
-5737,55	255,00
-5722,12	242,00
-5706,73	285,00
-5691,36	324,00
-5676,02	299,00
-5660,71	222,00
-5645,42	343,00
-5630,16	323,00
-5614,92	319,00
-5599,71	178,00
-5584,53	260,00
-5569,37	209,00
-5554,24	527,00
-5539,14	296,00
-5524,06	349,00
-5509,01	353,00
-5493,98	280,00
-5478,98	257,00
-5464,00	250,00
-5449,05	289,00
-5434,13	242,00
-5419,23	238,00
-5404,36	267,00
-5389,51	281,00
-5374,69	163,00
-5359,89	248,00
-5345,12	277,00
-5330,37	314,00
-5315,65	187,00
-5300,95	296,00
-5286,28	329,00
-5271,63	112,00
-5257,01	186,00
-5242,41	252,00
-5227,84	261,00
-5213,29	347,00
-5198,76	272,00
-5184,26	303,00
-5169,79	221,00
-5155,33	280,00
-5140,91	196,00
-5126,51	179,00
-5112,13	309,00
-5097,77	150,00
-5083,44	320,00
-5069,13	260,00
-5054,85	336,00
-5040,59	342,00
-5026,36	402,00
-5012,15	308,00
-4997,96	325,00
-4983,80	373,00
-4969,66	283,00
-4955,54	294,00
-4941,44	320,00
-4927,37	169,00
-4913,33	236,00
-4899,30	193,00
-4885,30	323,00
-4871,33	203,00
-4857,37	333,00
-4843,44	329,00
-4829,53	318,00
-4815,65	316,00
-4801,79	168,00
-4787,95	288,00
-4774,13	286,00
-4760,34	288,00
-4746,56	425,00
-4732,82	314,00
-4719,09	300,00
-4705,38	374,00
-4691,70	326,00
-4678,04	342,00
-4664,41	308,00
-4650,79	422,00
-4637,20	250,00
-4623,63	244,00
-4610,08	362,00
-4596,56	298,00
-4583,05	215,00
-4569,57	216,00
-4556,11	392,00
-4542,67	316,00
-4529,25	293,00
-4515,86	271,00
-4502,49	313,00
-4489,13	357,00
-4475,80	410,00
-4462,49	287,00
-4449,21	280,00
-4435,94	330,00
-4422,70	205,00
-4409,47	264,00
-4396,27	315,00
-4383,09	278,00
-4369,93	326,00
-4356,79	328,00
-4343,67	366,00
-4330,58	341,00
-4317,50	420,00
-4304,45	437,00
-4291,41	361,00
-4278,40	385,00
-4265,41	341,00
-4252,44	315,00
-4239,49	243,00
-4226,55	268,00
-4213,65	395,00
-4200,76	374,00
-4187,89	428,00
-4175,04	290,00
-4162,21	256,00
-4149,40	382,00
-4136,61	381,00
-4123,85	320,00
-4111,10	389,00
-4098,37	383,00
-4085,66	404,00
-4072,98	339,00
-4060,31	359,00
-4047,66	371,00
-4035,04	547,00
-4022,43	319,00
-4009,84	235,00
-3997,27	261,00
-3984,72	357,00
-3972,19	393,00
-3959,69	391,00
-3947,20	336,00
-3934,73	351,00
-3922,27	367,00
-3909,84	325,00
-3897,43	427,00
-3885,04	471,00
-3872,67	412,00
-3860,31	395,00
-3847,98	449,00
-3835,66	412,00
-3823,36	427,00
-3811,09	396,00
-3798,83	383,00
-3786,59	341,00
-3774,37	440,00
-3762,17	288,00
-3749,98	370,00
-3737,82	390,00
-3725,67	417,00
-3713,55	358,00
-3701,44	486,00
-3689,35	415,00
-3677,28	397,00
-3665,22	337,00
-3653,19	300,00
-3641,17	417,00
-3629,18	423,00
-3617,20	347,00
-3605,24	408,00
-3593,30	483,00
-3581,37	451,00
-3569,47	410,00
-3557,58	418,00
-3545,71	387,00
-3533,86	505,00
-3522,02	311,00
-3510,21	449,00
-3498,41	375,00
-3486,63	354,00
-3474,87	389,00
-3463,12	472,00
-3451,40	376,00
-3439,69	401,00
-3428,00	438,00
-3416,33	396,00
-3404,67	322,00
-3393,03	411,00
-3381,41	456,00
-3369,81	447,00
-3358,22	465,00
-3346,66	479,00
-3335,10	388,00
-3323,57	339,00
-3312,06	414,00
-3300,56	380,00
-3289,08	374,00
-3277,61	355,00
-3266,16	418,00
-3254,73	371,00
-3243,32	352,00
-3231,92	308,00
-3220,55	515,00
-3209,18	514,00
-3197,84	339,00
-3186,51	325,00
-3175,20	351,00
-3163,90	313,00
-3152,63	424,00
-3141,36	310,00
-3130,12	447,00
-3118,89	454,00
-3107,68	297,00
-3096,49	461,00
-3085,31	291,00
-3074,15	386,00
-3063,00	403,00
-3051,87	382,00
-3040,76	402,00
-3029,67	495,00
-3018,59	488,00
-3007,52	519,00
-2996,48	365,00
-2985,44	456,00
-2974,43	421,00
-2963,43	342,00
-2952,45	473,00
-2941,48	403,00
-2930,53	441,00
-2919,60	290,00
-2908,68	379,00
-2897,78	395,00
-2886,89	454,00
-2876,02	401,00
-2865,17	340,00
-2854,33	435,00
-2843,50	345,00
-2832,70	362,00
-2821,90	350,00
-2811,13	446,00
-2800,37	407,00
-2789,62	253,00
-2778,89	353,00
-2768,18	433,00
-2757,48	446,00
-2746,80	391,00
-2736,13	338,00
-2725,48	440,00
-2714,84	393,00
-2704,22	379,00
-2693,61	309,00
-2683,02	457,00
-2672,45	401,00
-2661,89	466,00
-2651,34	352,00
-2640,81	414,00
-2630,30	502,00
-2619,80	268,00
-2609,31	449,00
-2598,84	354,00
-2588,39	372,00
-2577,95	369,00
-2567,52	227,00
-2557,11	378,00
-2546,71	349,00
-2536,33	393,00
-2525,97	405,00
-2515,62	407,00
-2505,28	412,00
-2494,96	355,00
-2484,65	377,00
-2474,36	634,00
-2464,08	322,00
-2453,82	490,00
-2443,57	388,00
-2433,33	347,00
-2423,11	425,00
-2412,91	410,00
-2402,72	337,00
-2392,54	297,00
-2382,38	409,00
-2372,23	410,00
-2362,09	-2690,00
-2351,97	462,00
-2341,87	322,00
-2331,78	396,00
-2321,70	462,00
-2311,64	379,00
-2301,59	414,00
-2291,55	342,00
-2281,53	414,00
-2271,53	352,00
-2261,53	474,00
-2251,55	423,00
-2241,59	339,00
-2231,64	357,00
-2221,70	408,00
-2211,78	382,00
-2201,87	460,00
-2191,97	393,00
-2182,09	353,00
-2172,22	437,00
-2162,37	308,00
-2152,53	314,00
-2142,70	364,00
-2132,89	376,00
-2123,09	397,00
-2113,30	400,00
-2103,53	390,00
-2093,77	381,00
-2084,02	448,00
-2074,29	344,00
-2064,57	447,00
-2054,86	450,00
-2045,17	490,00
-2035,49	338,00
-2025,82	328,00
-2016,17	381,00
-2006,53	371,00
-1996,91	413,00
-1987,29	334,00
-1977,69	396,00
-1968,11	378,00
-1958,53	288,00
-1948,97	367,00
-1939,42	386,00
-1929,89	409,00
-1920,37	419,00
-1910,86	313,00
-1901,36	351,00
-1891,88	385,00
-1882,41	360,00
-1872,95	372,00
-1863,51	445,00
-1854,08	387,00
-1844,66	390,00
-1835,26	473,00
-1825,86	487,00
-1816,48	320,00
-1807,11	433,00
-1797,76	393,00
-1788,42	373,00
-1779,09	456,00
-1769,77	378,00
-1760,47	516,00
-1751,17	343,00
-1741,89	349,00
-1732,63	399,00
-1723,37	472,00
-1714,13	402,00
-1704,90	359,00
-1695,68	443,00
-1686,48	311,00
-1677,29	401,00
-1668,11	520,00
-1658,94	372,00
-1649,78	394,00
-1640,64	434,00
-1631,51	322,00
-1622,39	412,00
-1613,28	359,00
-1604,19	464,00
-1595,10	381,00
-1586,03	387,00
-1576,97	424,00
-1567,93	375,00
-1558,89	419,00
-1549,87	505,00
-1540,86	426,00
-1531,86	337,00
-1522,87	348,00
-1513,90	440,00
-1504,93	421,00
-1495,98	505,00
-1487,04	438,00
-1478,12	297,00
-1469,20	337,00
-1460,30	381,00
-1451,40	460,00
-1442,52	437,00
-1433,65	572,00
-1424,80	441,00
-1415,95	366,00
-1407,12	528,00
-1398,30	360,00
-1389,48	401,00
-1380,69	338,00
-1371,90	283,00
-1363,12	439,00
-1354,36	382,00
-1345,60	408,00
-1336,86	345,00
-1328,13	479,00
-1319,41	471,00
-1310,70	421,00
-1302,01	317,00
-1293,32	336,00
-1284,65	396,00
-1275,99	449,00
-1267,33	440,00
-1258,69	469,00
-1250,06	370,00
-1241,45	308,00
-1232,84	514,00
-1224,25	399,00
-1215,66	422,00
-1207,09	369,00
-1198,53	395,00
-1189,97	364,00
-1181,43	369,00
-1172,91	366,00
-1164,39	484,00
-1155,88	327,00
-1147,38	338,00
-1138,90	428,00
-1130,43	370,00
-1121,96	462,00
-1113,51	399,00
-1105,07	417,00
-1096,64	447,00
-1088,22	439,00
-1079,81	463,00
-1071,41	459,00
-1063,02	405,00
-1054,65	370,00
-1046,28	412,00
-1037,92	396,00
-1029,58	407,00
-1021,24	491,00
-1012,92	572,00
-1004,61	412,00
-996,30	574,00
-988,01	297,00
-979,73	439,00
-971,46	415,00
-963,20	375,00
-954,95	319,00
-946,71	385,00
-938,48	444,00
-930,26	459,00
-922,06	456,00
-913,86	368,00
-905,67	378,00
-897,49	482,00
-889,33	294,00
-881,17	438,00
-873,02	430,00
-864,89	329,00
-856,76	414,00
-848,65	452,00
-840,54	400,00
-832,45	379,00
-824,36	314,00
-816,29	517,00
-808,22	442,00
-800,17	413,00
-792,12	403,00
-784,09	409,00
-776,06	401,00
-768,05	448,00
-760,04	345,00
-752,05	386,00
-744,07	429,00
-736,09	492,00
-728,13	306,00
-720,17	424,00
-712,23	431,00
-704,29	411,00
-696,37	393,00
-688,45	466,00
-680,55	380,00
-672,65	392,00
-664,77	430,00
-656,89	432,00
-649,03	315,00
-641,17	429,00
-633,32	395,00
-625,49	470,00
-617,66	371,00
-609,84	411,00
-602,03	291,00
-594,23	500,00
-586,45	412,00
-578,67	384,00
-570,90	493,00
-563,14	380,00
-555,39	480,00
-547,65	402,00
-539,91	406,00
-532,19	410,00
-524,48	397,00
-516,78	416,00
-509,08	460,00
-501,40	433,00
-493,72	429,00
-486,06	353,00
-478,40	519,00
-470,76	337,00
-463,12	350,00
-455,49	388,00
-447,87	368,00
-440,26	390,00
-432,66	383,00
-425,07	391,00
-417,49	481,00
-409,92	299,00
-402,35	444,00
-394,80	342,00
-387,25	406,00
-379,72	424,00
-372,19	408,00
-364,67	412,00
-357,17	449,00
-349,67	469,00
-342,18	435,00
-334,69	457,00
-327,22	428,00
-319,76	408,00
-312,30	352,00
-304,86	428,00
-297,42	526,00
-290,00	361,00
-282,58	466,00
-275,17	541,00
-267,77	498,00
-260,37	432,00
-252,99	522,00
-245,62	494,00
-238,25	504,00
-230,90	472,00
-223,55	532,00
-216,21	553,00
-208,88	722,00
-201,56	572,00
-194,25	665,00
-186,94	634,00
-179,65	647,00
-172,36	699,00
-165,08	739,00
-157,81	805,00
-150,55	826,00
-143,30	790,00
-136,06	790,00
-128,82	878,00
-121,60	895,00
-114,38	1037,00
-107,17	1208,00
-99,97	1205,00
-92,78	1320,00
-85,60	1494,00
-78,42	1648,00
-71,25	1847,00
-64,10	2007,00
-56,95	2343,00
-49,81	2731,00
-42,67	3321,00
-35,55	4044,00
-28,43	5347,00
-21,33	8522,00
-14,23	26786,00
-7,14	57498,00
-0,05	57284,00
7,02	57012,00
14,09	57319,00
21,14	24373,00
28,19	10240,00
35,23	6697,00
42,27	5341,00
49,29	4292,00
56,31	3740,00
63,32	3297,00
70,32	2761,00
77,31	2496,00
84,29	2224,00
91,27	2025,00
98,23	2034,00
105,19	2006,00
112,14	2615,00
119,09	4999,00
126,02	8799,00
132,95	10963,00
139,87	11773,00
146,78	12111,00
153,68	12098,00
160,58	12170,00
167,46	11926,00
174,34	12305,00
181,21	12094,00
188,08	12018,00
194,93	12187,00
201,78	12260,00
208,62	12289,00
215,45	12395,00
222,27	12329,00
229,09	12331,00
235,90	12156,00
242,70	12233,00
249,49	12285,00
256,27	12228,00
263,05	12109,00
269,82	12279,00
276,58	12179,00
283,33	12064,00
290,08	12116,00
296,82	11976,00
303,55	11780,00
310,27	11743,00
316,98	11658,00
323,69	11803,00
330,39	11724,00
337,08	11775,00
343,76	11880,00
350,44	11852,00
357,11	11643,00
363,77	11864,00
370,42	11761,00
377,07	11704,00
383,71	11659,00
390,34	11902,00
396,96	11808,00
403,58	11910,00
410,19	11993,00
416,79	12069,00
423,38	12140,00
429,97	11890,00
436,55	11700,00
443,12	11687,00
449,68	11525,00
456,24	11474,00
462,79	11609,00
469,33	11409,00
475,86	11357,00
482,39	11268,00
488,91	11305,00
495,42	11193,00
501,93	11226,00
508,42	11279,00
514,91	10997,00
521,40	11169,00
527,87	11009,00
534,34	11061,00
540,80	11065,00
547,25	11049,00
553,70	11173,00
560,14	11070,00
566,57	11087,00
573,00	11134,00
579,41	10989,00
585,83	11071,00
592,23	11033,00
598,62	11025,00
605,01	11051,00
611,40	10863,00
617,77	10902,00
624,14	10827,00
630,50	10774,00
636,85	10691,00
643,20	10694,00
649,54	10660,00
655,87	10692,00
662,20	10628,00
668,52	10458,00
674,83	10510,00
681,13	10422,00
687,43	10381,00
693,72	10331,00
700,00	10298,00
706,28	10218,00
712,55	10365,00
718,81	10343,00
725,07	10417,00
731,32	10344,00
737,56	10260,00
743,79	10430,00
750,02	10436,00
756,24	10305,00
762,46	10209,00
768,67	10384,00
774,87	10297,00
781,06	10117,00
787,25	10155,00
793,43	10233,00
799,60	10239,00
805,77	10455,00
811,93	10299,00
818,08	10250,00
824,23	10159,00
830,37	10373,00
836,50	10145,00
842,63	10019,00
848,75	10097,00
854,87	10015,00
860,97	9914,00
867,07	9846,00
873,17	9936,00
879,25	9741,00
885,33	9867,00
891,41	9839,00
897,47	9713,00
903,53	9799,00
909,59	9863,00
915,63	9763,00
921,67	9742,00
927,71	9579,00
933,74	9671,00
939,76	9603,00
945,77	9546,00
951,78	9673,00
957,78	9635,00
963,78	9581,00
969,77	9557,00
975,75	9614,00
981,72	9455,00
987,69	10103,00
993,66	9916,00
999,61	9686,00
1005,56	9626,00
1011,51	9612,00
1017,44	9690,00
1023,37	9650,00
1029,30	9678,00
1035,22	9562,00
1041,13	9731,00
1047,03	9692,00
1052,93	9762,00
1058,83	10073,00
1064,71	10266,00
1070,59	10066,00
1076,47	9766,00
1082,33	9687,00
1088,20	9644,00
1094,05	9499,00
1099,90	9353,00
1105,74	9466,00
1111,58	9469,00
1117,41	9536,00
1123,23	9635,00
1129,05	9978,00
1134,86	9843,00
1140,67	9543,00
1146,47	9543,00
1152,26	9412,00
1158,05	9360,00
1163,83	9495,00
1169,60	9397,00
1175,37	9316,00
1181,13	9338,00
1186,89	9300,00
1192,64	9258,00
1198,38	9292,00
1204,12	9327,00
1209,85	9160,00
1215,58	9327,00
1221,30	9300,00
1227,02	9272,00
1232,72	9351,00
1238,43	9311,00
1244,12	9174,00
1249,81	9348,00
1255,50	9388,00
1261,17	9327,00
1266,85	9293,00
1272,51	9370,00
1278,17	9504,00
1283,83	9482,00
1289,47	9929,00
1295,12	10219,00
1300,75	10237,00
1306,38	9853,00
1312,01	9525,00
1317,63	9370,00
1323,24	9302,00
1328,85	9305,00
1334,45	9124,00
1340,04	9141,00
1345,63	9146,00
1351,22	9381,00
1356,80	9178,00
1362,37	9297,00
1367,93	9237,00
1373,49	9334,00
1379,05	9368,00
1384,60	9228,00
1390,14	9226,00
1395,68	9238,00
1401,21	9173,00
1406,74	9380,00
1412,26	9492,00
1417,77	9675,00
1423,28	9627,00
1428,78	9727,00
1434,28	10189,00
1439,77	10249,00
1445,26	10149,00
1450,74	10196,00
1456,22	9988,00
1461,68	9750,00
1467,15	9665,00
1472,61	9474,00
1478,06	9299,00
1483,51	9146,00
1488,95	8904,00
1494,38	9070,00
1499,81	8740,00
1505,24	8835,00
1510,65	8679,00
1516,07	8696,00
1521,48	8746,00
1526,88	8471,00
1532,27	8532,00
1537,67	8462,00
1543,05	8464,00
1548,43	8483,00
1553,81	8456,00
1559,18	8265,00
1564,54	8258,00
1569,90	8301,00
1575,25	8367,00
1580,60	8125,00
1585,94	8141,00
1591,28	8264,00
1596,61	8090,00
1601,93	8134,00
1607,25	8108,00
1612,57	8100,00
1617,88	8164,00
1623,18	8154,00
1628,48	7886,00
1633,77	7916,00
1639,06	7912,00
1644,34	7909,00
1649,62	7750,00
1654,89	7785,00
1660,16	7717,00
1665,42	7808,00
1670,67	7795,00
1675,92	7506,00
1681,17	7607,00
1686,41	7652,00
1691,64	7528,00
1696,87	7587,00
1702,10	7494,00
1707,32	7516,00
1712,53	7407,00
1717,74	7340,00
1722,94	7494,00
1728,14	7339,00
1733,33	7266,00
1738,52	7178,00
1743,70	7279,00
1748,88	7126,00
1754,05	7269,00
1759,22	7047,00
1764,38	7187,00
1769,53	7030,00
1774,69	6964,00
1779,83	6813,00
1784,97	6816,00
1790,11	6851,00
1795,24	6730,00
1800,36	6673,00
1805,48	6557,00
1810,60	6890,00
1815,71	6772,00
1820,82	6682,00
1825,92	6709,00
1831,01	6799,00
1836,10	6669,00
1841,19	6755,00
1846,26	6535,00
1851,34	6826,00
1856,41	6454,00
1861,47	6610,00
1866,53	6719,00
1871,59	6590,00
1876,64	6632,00
1881,68	6355,00
1886,72	6466,00
1891,76	6445,00
1896,79	6294,00
1901,81	6167,00
1906,83	6266,00
1911,85	6150,00
1916,86	6113,00
1921,86	5990,00
1926,86	6039,00
1931,86	6052,00
1936,85	6005,00
1941,83	5811,00
1946,81	5810,00
1951,79	5687,00
1956,76	5763,00
1961,72	5681,00
1966,68	5733,00
1971,64	5843,00
1976,59	5812,00
1981,54	5680,00
1986,48	5645,00
1991,42	5574,00
1996,35	5592,00
2001,27	5548,00
2006,20	5461,00
2011,11	5644,00
2016,03	5421,00
2020,93	5418,00
2025,84	5471,00
2030,73	5529,00
2035,63	5486,00
2040,52	5433,00
2045,40	5410,00
2050,28	5322,00
2055,15	5415,00
2060,02	5245,00
2064,89	5328,00
2069,75	5219,00
2074,60	5284,00
2079,46	5156,00
2084,30	5281,00
2089,14	5112,00
2093,98	5254,00
2098,81	5209,00
2103,64	5251,00
2108,46	5249,00
2113,28	5210,00
2118,09	5253,00
2122,90	5146,00
2127,70	5178,00
2132,50	5113,00
2137,30	5098,00
2142,09	4939,00
2146,87	4961,00
2151,66	5011,00
2156,43	4889,00
2161,20	4838,00
2165,97	4980,00
2170,73	4931,00
2175,49	4900,00
2180,24	4785,00
2184,99	4946,00
2189,74	4826,00
2194,48	4796,00
2199,21	4808,00
2203,94	4768,00
2208,67	4685,00
2213,39	4605,00
2218,11	4792,00
2222,82	4517,00
2227,53	4630,00
2232,23	4557,00
2236,93	4558,00
2241,63	4491,00
2246,32	4487,00
2251,00	4440,00
2255,68	4481,00
2260,36	4396,00
2265,03	4462,00
2269,70	4460,00
2274,36	4338,00
2279,02	4359,00
2283,68	4244,00
2288,33	4427,00
2292,97	4304,00
2297,61	4204,00
2302,25	4307,00
2306,88	4254,00
2311,51	4085,00
2316,14	4116,00
2320,75	4173,00
2325,37	4045,00
2329,98	4182,00
2334,59	4113,00
2339,19	4040,00
2343,79	3904,00
2348,38	3970,00
2352,97	3861,00
2357,55	3906,00
2362,13	3960,00
2366,71	3811,00
2371,28	3970,00
2375,85	3806,00
2380,41	3849,00
2384,97	3711,00
2389,52	3801,00
2394,07	3753,00
2398,62	3675,00
2403,16	3816,00
2407,70	3538,00
2412,23	3667,00
2416,76	3716,00
2421,29	3694,00
2425,81	3616,00
2430,32	3576,00
2434,84	3457,00
2439,34	3522,00
2443,85	3584,00
2448,35	3481,00
2452,84	3485,00
2457,33	3425,00
2461,82	3334,00
2466,30	3370,00
2470,78	3442,00
2475,25	3290,00
2479,72	3393,00
2484,19	3343,00
2488,65	3262,00
2493,11	3227,00
2497,56	3333,00
2502,01	3185,00
2506,46	3198,00
2510,90	3116,00
2515,34	3122,00
2519,77	3285,00
2524,20	3086,00
2528,62	3146,00
2533,04	3091,00
2537,46	3077,00
2541,87	3032,00
2546,28	2979,00
2550,68	3055,00
2555,08	2894,00
2559,48	2909,00
2563,87	2851,00
2568,26	2878,00
2572,64	2981,00
2577,02	2874,00
2581,40	2760,00
2585,77	2803,00
2590,14	2769,00
2594,50	2679,00
2598,86	2724,00
2603,22	2677,00
2607,57	2647,00
2611,92	2639,00
2616,26	2778,00
2620,60	2740,00
2624,94	2644,00
2629,27	2555,00
2633,60	2544,00
2637,92	2618,00
2642,24	2558,00
2646,56	2542,00
2650,87	2441,00
2655,18	2624,00
2659,48	2542,00
2663,78	2464,00
2668,08	2554,00
2672,37	2594,00
2676,66	2470,00
2680,95	2440,00
2685,23	2569,00
2689,50	2471,00
2693,78	2439,00
2698,05	2418,00
2702,31	2457,00
2706,57	2579,00
2710,83	2588,00
2715,08	2607,00
2719,33	2463,00
2723,58	2493,00
2727,82	2553,00
2732,06	2624,00
2736,29	2492,00
2740,53	2342,00
2744,75	2368,00
2748,97	2402,00
2753,19	2369,00
2757,41	2273,00
2761,62	2349,00
2765,83	2341,00
2770,03	2252,00
2774,23	2362,00
2778,43	2267,00
2782,62	2350,00
2786,81	2242,00
2791,00	2176,00
2795,18	2191,00
2799,35	2254,00
2803,53	2272,00
2807,70	2320,00
2811,86	2248,00
2816,03	2386,00
2820,19	2328,00
2824,34	2289,00
2828,49	2446,00
2832,64	2506,00
2836,78	2743,00
2840,92	2912,00
2845,06	3161,00
2849,19	3359,00
2853,32	3353,00
2857,45	3250,00
2861,57	3372,00
2865,69	3289,00
2869,80	3188,00
2873,91	3203,00
2878,02	3360,00
2882,12	3505,00
2886,22	3362,00
2890,32	3318,00
2894,41	3258,00
2898,50	3008,00
2902,58	3035,00
2906,67	2998,00
2910,74	2759,00
2914,82	2695,00
2918,89	2653,00
2922,96	2520,00
2927,02	2448,00
2931,08	2392,00
2935,13	2278,00
2939,19	2211,00
2943,24	2202,00
2947,28	2168,00
2951,32	1943,00
2955,36	1906,00
2959,40	1863,00
2963,43	1864,00
2967,46	1769,00
2971,48	1730,00
2975,50	1657,00
2979,52	1783,00
2983,53	1665,00
2987,54	1662,00
2991,55	1588,00
2995,55	1588,00
2999,55	1490,00
3003,54	1485,00
3007,54	1510,00
3011,53	1469,00
3015,51	1497,00
3019,49	1431,00
3023,47	1441,00
3027,45	1481,00
3031,42	1411,00
3035,39	1397,00
3039,35	1410,00
3043,31	1404,00
3047,27	1380,00
3051,22	1364,00
3055,17	1313,00
3059,12	1309,00
3063,06	1324,00
3067,00	1302,00
3070,94	1237,00
3074,87	1314,00
3078,80	1293,00
3082,73	1308,00
3086,65	1220,00
3090,57	1302,00
3094,49	1273,00
3098,40	1124,00
3102,31	1134,00
3106,22	1257,00
3110,12	1113,00
3114,02	1039,00
3117,92	1080,00
3121,81	1172,00
3125,70	1125,00
3129,58	1076,00
3133,47	1058,00
3137,34	1193,00
3141,22	1108,00
3145,09	1127,00
3148,96	1078,00
3152,83	1115,00
3156,69	1073,00
3160,55	979,00
3164,40	1132,00
3168,26	1087,00
3172,10	1109,00
3175,95	1063,00
3179,79	1046,00
3183,63	1028,00
3187,47	991,00
3191,30	1063,00
3195,13	997,00
3198,95	927,00
3202,78	990,00
3206,60	988,00
3210,41	932,00
3214,23	865,00
3218,03	902,00
3221,84	934,00
3225,64	938,00
3229,44	893,00
3233,24	846,00
3237,03	891,00
3240,82	892,00
3244,61	814,00
3248,39	842,00
3252,17	903,00
3255,95	886,00
3259,72	835,00
3263,49	912,00
3267,26	814,00
3271,03	808,00
3274,79	833,00
3278,54	872,00
3282,30	805,00
3286,05	845,00
3289,80	762,00
3293,54	864,00
3297,29	778,00
3301,02	855,00
3304,76	779,00
3308,49	811,00
3312,22	718,00
3315,95	729,00
3319,67	729,00
3323,39	829,00
3327,10	732,00
3330,82	707,00
3334,53	788,00
3338,24	701,00
3341,94	654,00
3345,64	737,00
3349,34	713,00
3353,03	746,00
3356,72	717,00
3360,41	689,00
3364,10	623,00
3367,78	672,00
3371,46	672,00
3375,13	744,00
3378,81	598,00
3382,48	636,00
3386,14	719,00
3389,81	728,00
3393,47	653,00
3397,12	745,00
3400,78	677,00
3404,43	605,00
3408,08	686,00
3411,72	585,00
3415,36	553,00
3419,00	644,00
3422,64	621,00
3426,27	614,00
3429,90	632,00
3433,53	603,00
3437,15	596,00
3440,77	581,00
3444,39	604,00
3448,00	642,00
3451,62	582,00
3455,22	640,00
3458,83	497,00
3462,43	569,00
3466,03	524,00
3469,63	472,00
3473,22	537,00
3476,81	448,00
3480,40	548,00
3483,99	484,00
3487,57	534,00
3491,15	526,00
3494,72	595,00
3498,29	645,00
3501,86	540,00
3505,43	443,00
3508,99	476,00
3512,56	394,00
3516,11	574,00
3519,67	559,00
3523,22	517,00
3526,77	385,00
3530,32	680,00
3533,86	519,00
3537,40	566,00
3540,94	462,00
3544,47	512,00
3548,00	471,00
3551,53	578,00
3555,06	471,00
3558,58	497,00
3562,10	522,00
3565,62	467,00
3569,13	470,00
3572,64	549,00
3576,15	448,00
3579,66	449,00
3583,16	479,00
3586,66	500,00
3590,16	436,00
3593,65	419,00
3597,14	440,00
3600,63	513,00
3604,11	432,00
3607,60	490,00
3611,08	467,00
3614,55	453,00
3618,03	506,00
3621,50	359,00
3624,97	376,00
3628,43	361,00
3631,90	374,00
3635,36	358,00
3638,81	407,00
3642,27	363,00
3645,72	498,00
3649,17	395,00
3652,61	431,00
3656,06	362,00
3659,50	455,00
3662,93	421,00
3666,37	466,00
3669,80	523,00
3673,23	451,00
3676,65	392,00
3680,08	394,00
3683,50	390,00
3686,92	382,00
3690,33	393,00
3693,74	403,00
3697,15	422,00
3700,56	458,00
3703,96	349,00
3707,36	307,00
3710,76	304,00
3714,16	363,00
3717,55	371,00
3720,94	314,00
3724,33	429,00
3727,71	368,00
3731,10	428,00
3734,48	394,00
3737,85	360,00
3741,23	335,00
3744,60	336,00
3747,97	281,00
3751,33	397,00
3754,69	394,00
3758,05	380,00
3761,41	326,00
3764,77	388,00
3768,12	384,00
3771,47	277,00
3774,82	340,00
3778,16	-5,00
3781,50	6,00
3784,84	-3,00
3788,18	3,00
>>>>>End Processed Spectral Data<<<<<
