SpectraSuite Data File
++++++++++++++++++++++++++++++++++++
Date: Mon Jan 05 16:29:22 ICT 2026
User: Administrator
Dark Spectrum Present: Yes
Reference Spectrum Present: No
Number of Sampled Component Spectra: 1
Spectrometers: MAYP113682
Integration Time (usec): 3000000 (MAYP113682)
Spectra Averaged: 1 (MAYP113682)
Boxcar Smoothing: 0 (MAYP113682)
Correct for Electrical Dark: No (MAYP113682)
Strobe/Lamp Enabled: No (MAYP113682)
Correct for Detector Non-linearity: No (MAYP113682)
Correct for Stray Light: No (MAYP113682)
Number of Pixels in Processed Spectrum: 2068
>>>>>Begin Processed Spectral Data<<<<<
-37534,58	21,00
-37414,56	8,00
-37295,11	4,00
-37176,24	7,00
-37057,95	432,00
-36940,22	549,00
-36823,05	464,00
-36706,45	575,00
-36590,40	593,00
-36474,90	523,00
-36359,95	651,00
-36245,55	589,00
-36131,68	580,00
-36018,35	488,00
-35905,55	558,00
-35793,29	673,00
-35681,54	537,00
-35570,32	589,00
-35459,62	574,00
-35349,43	704,00
-35239,75	644,00
-35130,58	610,00
-35021,91	607,00
-34913,74	576,00
-34806,07	610,00
-34698,89	706,00
-34592,20	562,00
-34486,00	661,00
-34380,28	671,00
-34275,04	605,00
-34170,27	579,00
-34065,98	714,00
-33962,16	610,00
-33858,81	637,00
-33755,92	619,00
-33653,49	672,00
-33551,52	688,00
-33450,01	702,00
-33348,94	657,00
-33248,33	565,00
-33148,16	645,00
-33048,43	608,00
-32949,14	778,00
-32850,29	706,00
-32751,87	661,00
-32653,89	685,00
-32556,33	656,00
-32459,20	612,00
-32362,49	603,00
-32266,19	697,00
-32170,32	608,00
-32074,86	719,00
-31979,82	733,00
-31885,18	785,00
-31790,95	675,00
-31697,12	799,00
-31603,69	681,00
-31510,67	705,00
-31418,04	655,00
-31325,80	686,00
-31233,95	640,00
-31142,49	653,00
-31051,42	657,00
-30960,73	778,00
-30870,43	736,00
-30780,50	712,00
-30690,95	623,00
-30601,77	800,00
-30512,97	719,00
-30424,53	760,00
-30336,46	674,00
-30248,76	667,00
-30161,42	714,00
-30074,44	670,00
-29987,81	674,00
-29901,55	787,00
-29815,63	661,00
-29730,07	712,00
-29644,86	708,00
-29560,00	654,00
-29475,48	793,00
-29391,30	702,00
-29307,47	676,00
-29223,97	688,00
-29140,81	692,00
-29057,99	709,00
-28975,50	621,00
-28893,34	736,00
-28811,51	603,00
-28730,00	773,00
-28648,82	651,00
-28567,97	708,00
-28487,43	616,00
-28407,21	628,00
-28327,32	617,00
-28247,73	750,00
-28168,46	632,00
-28089,50	704,00
-28010,85	592,00
-27932,51	644,00
-27854,48	721,00
-27776,75	692,00
-27699,32	740,00
-27622,19	676,00
-27545,37	711,00
-27468,84	684,00
-27392,60	713,00
-27316,66	723,00
-27241,01	706,00
-27165,66	604,00
-27090,59	582,00
-27015,81	734,00
-26941,31	706,00
-26867,10	650,00
-26793,17	773,00
-26719,52	730,00
-26646,15	581,00
-26573,06	650,00
-26500,24	676,00
-26427,70	659,00
-26355,43	668,00
-26283,43	672,00
-26211,71	668,00
-26140,25	735,00
-26069,06	747,00
-25998,13	632,00
-25927,46	651,00
-25857,06	602,00
-25786,92	660,00
-25717,04	610,00
-25647,42	698,00
-25578,05	655,00
-25508,94	690,00
-25440,09	649,00
-25371,48	645,00
-25303,13	737,00
-25235,02	556,00
-25167,17	727,00
-25099,56	592,00
-25032,19	626,00
-24965,07	576,00
-24898,20	567,00
-24831,56	535,00
-24765,17	730,00
-24699,01	554,00
-24633,10	776,00
-24567,41	662,00
-24501,97	653,00
-24436,75	664,00
-24371,77	554,00
-24307,03	607,00
-24242,51	665,00
-24178,22	577,00
-24114,16	613,00
-24050,32	682,00
-23986,71	707,00
-23923,32	700,00
-23860,16	647,00
-23797,22	597,00
-23734,50	615,00
-23672,00	598,00
-23609,71	695,00
-23547,65	513,00
-23485,80	730,00
-23424,16	575,00
-23362,74	799,00
-23301,53	678,00
-23240,54	592,00
-23179,75	556,00
-23119,17	629,00
-23058,80	637,00
-22998,64	737,00
-22938,68	692,00
-22878,93	664,00
-22819,39	587,00
-22760,04	635,00
-22700,90	671,00
-22641,96	603,00
-22583,22	603,00
-22524,68	663,00
-22466,33	685,00
-22408,19	655,00
-22350,23	605,00
-22292,48	652,00
-22234,92	661,00
-22177,55	683,00
-22120,37	849,00
-22063,38	597,00
-22006,58	624,00
-21949,98	571,00
-21893,56	552,00
-21837,33	687,00
-21781,28	638,00
-21725,42	723,00
-21669,74	726,00
-21614,25	576,00
-21558,94	610,00
-21503,81	734,00
-21448,86	679,00
-21394,10	698,00
-21339,51	615,00
-21285,10	606,00
-21230,86	578,00
-21176,81	572,00
-21122,93	617,00
-21069,22	531,00
-21015,69	682,00
-20962,33	656,00
-20909,14	667,00
-20856,13	602,00
-20803,28	738,00
-20750,61	598,00
-20698,10	531,00
-20645,76	611,00
-20593,59	716,00
-20541,59	617,00
-20489,75	645,00
-20438,07	495,00
-20386,56	607,00
-20335,22	585,00
-20284,03	584,00
-20233,01	646,00
-20182,15	565,00
-20131,45	594,00
-20080,91	617,00
-20030,52	649,00
-19980,30	574,00
-19930,23	586,00
-19880,32	638,00
-19830,56	573,00
-19780,96	655,00
-19731,52	591,00
-19682,23	650,00
-19633,09	603,00
-19584,10	559,00
-19535,26	644,00
-19486,58	794,00
-19438,04	607,00
-19389,66	754,00
-19341,42	585,00
-19293,33	658,00
-19245,39	569,00
-19197,60	729,00
-19149,95	617,00
-19102,45	625,00
-19055,09	592,00
-19007,87	669,00
-18960,80	697,00
-18913,87	607,00
-18867,09	618,00
-18820,44	716,00
-18773,94	690,00
-18727,57	649,00
-18681,35	592,00
-18635,26	654,00
-18589,31	591,00
-18543,50	663,00
-18497,83	723,00
-18452,29	668,00
-18406,89	597,00
-18361,63	671,00
-18316,50	761,00
-18271,50	640,00
-18226,63	698,00
-18181,90	709,00
-18137,30	618,00
-18092,84	624,00
-18048,50	646,00
-18004,29	598,00
-17960,22	589,00
-17916,27	599,00
-17872,45	759,00
-17828,76	712,00
-17785,20	639,00
-17741,77	672,00
-17698,46	753,00
-17655,28	579,00
-17612,22	675,00
-17569,29	654,00
-17526,48	706,00
-17483,79	681,00
-17441,23	594,00
-17398,79	658,00
-17356,48	575,00
-17314,28	769,00
-17272,21	647,00
-17230,26	637,00
-17188,42	640,00
-17146,71	707,00
-17105,12	634,00
-17063,64	590,00
-17022,28	593,00
-16981,04	646,00
-16939,92	673,00
-16898,91	787,00
-16858,02	613,00
-16817,25	670,00
-16776,59	639,00
-16736,04	616,00
-16695,61	647,00
-16655,29	561,00
-16615,09	610,00
-16574,99	637,00
-16535,01	674,00
-16495,15	693,00
-16455,39	645,00
-16415,74	597,00
-16376,21	661,00
-16336,78	550,00
-16297,46	702,00
-16258,26	631,00
-16219,16	594,00
-16180,17	642,00
-16141,28	721,00
-16102,51	717,00
-16063,84	555,00
-16025,27	661,00
-15986,82	578,00
-15948,46	691,00
-15910,22	652,00
-15872,07	593,00
-15834,04	660,00
-15796,10	634,00
-15758,27	668,00
-15720,54	626,00
-15682,91	627,00
-15645,39	797,00
-15607,97	724,00
-15570,64	544,00
-15533,42	707,00
-15496,30	649,00
-15459,28	723,00
-15422,36	641,00
-15385,54	534,00
-15348,82	640,00
-15312,19	774,00
-15275,66	617,00
-15239,23	642,00
-15202,90	585,00
-15166,67	653,00
-15130,53	723,00
-15094,48	753,00
-15058,54	577,00
-15022,68	629,00
-14986,93	575,00
-14951,26	689,00
-14915,69	579,00
-14880,22	603,00
-14844,84	606,00
-14809,55	635,00
-14774,35	673,00
-14739,25	608,00
-14704,24	701,00
-14669,32	596,00
-14634,49	616,00
-14599,75	676,00
-14565,10	601,00
-14530,55	722,00
-14496,08	614,00
-14461,70	632,00
-14427,41	660,00
-14393,21	561,00
-14359,10	616,00
-14325,07	647,00
-14291,14	684,00
-14257,29	689,00
-14223,52	675,00
-14189,85	783,00
-14156,26	628,00
-14122,76	627,00
-14089,34	544,00
-14056,01	652,00
-14022,76	561,00
-13989,60	694,00
-13956,52	616,00
-13923,53	680,00
-13890,62	643,00
-13857,79	588,00
-13825,05	599,00
-13792,39	582,00
-13759,81	689,00
-13727,31	584,00
-13694,90	736,00
-13662,57	693,00
-13630,31	673,00
-13598,14	648,00
-13566,05	559,00
-13534,05	698,00
-13502,12	628,00
-13470,27	641,00
-13438,50	647,00
-13406,80	579,00
-13375,19	586,00
-13343,66	697,00
-13312,20	705,00
-13280,83	592,00
-13249,53	748,00
-13218,30	569,00
-13187,16	666,00
-13156,09	765,00
-13125,10	732,00
-13094,18	626,00
-13063,34	656,00
-13032,58	535,00
-13001,89	666,00
-12971,28	778,00
-12940,74	666,00
-12910,27	684,00
-12879,88	624,00
-12849,57	730,00
-12819,33	691,00
-12789,16	718,00
-12759,06	663,00
-12729,04	601,00
-12699,09	1767,00
-12669,21	630,00
-12639,41	671,00
-12609,68	577,00
-12580,02	710,00
-12550,43	753,00
-12520,91	576,00
-12491,46	694,00
-12462,08	526,00
-12432,77	612,00
-12403,54	666,00
-12374,37	580,00
-12345,27	682,00
-12316,24	684,00
-12287,29	617,00
-12258,40	641,00
-12229,57	699,00
-12200,82	571,00
-12172,14	672,00
-12143,52	482,00
-12114,97	570,00
-12086,49	640,00
-12058,07	717,00
-12029,73	645,00
-12001,44	736,00
-11973,23	621,00
-11945,08	614,00
-11917,00	686,00
-11888,98	602,00
-11861,03	772,00
-11833,15	696,00
-11805,32	657,00
-11777,57	652,00
-11749,88	707,00
-11722,25	580,00
-11694,69	560,00
-11667,19	630,00
-11639,75	646,00
-11612,38	576,00
-11585,07	568,00
-11557,83	695,00
-11530,65	673,00
-11503,53	643,00
-11476,47	613,00
-11449,48	662,00
-11422,54	762,00
-11395,67	657,00
-11368,86	762,00
-11342,11	605,00
-11315,43	654,00
-11288,80	608,00
-11262,23	627,00
-11235,73	674,00
-11209,28	819,00
-11182,90	646,00
-11156,57	644,00
-11130,31	812,00
-11104,10	637,00
-11077,96	698,00
-11051,87	637,00
-11025,84	563,00
-10999,87	659,00
-10973,96	659,00
-10948,11	601,00
-10922,31	763,00
-10896,58	620,00
-10870,90	776,00
-10845,28	725,00
-10819,71	600,00
-10794,20	780,00
-10768,75	811,00
-10743,36	690,00
-10718,02	652,00
-10692,74	688,00
-10667,52	655,00
-10642,35	682,00
-10617,24	743,00
-10592,18	680,00
-10567,18	702,00
-10542,23	735,00
-10517,34	673,00
-10492,51	784,00
-10467,72	668,00
-10443,00	747,00
-10418,32	802,00
-10393,70	750,00
-10369,14	764,00
-10344,63	694,00
-10320,17	854,00
-10295,77	861,00
-10271,42	779,00
-10247,12	895,00
-10222,88	977,00
-10198,68	824,00
-10174,54	892,00
-10150,46	987,00
-10126,42	1021,00
-10102,44	887,00
-10078,51	969,00
-10054,63	1019,00
-10030,80	1002,00
-10007,03	1174,00
-9983,30	1013,00
-9959,63	1132,00
-9936,01	1216,00
-9912,44	1159,00
-9888,92	1217,00
-9865,44	1201,00
-9842,02	1198,00
-9818,65	1280,00
-9795,33	1141,00
-9772,06	1252,00
-9748,84	1214,00
-9725,67	1347,00
-9702,55	1541,00
-9679,47	1666,00
-9656,45	1741,00
-9633,47	1746,00
-9610,55	1822,00
-9587,67	1978,00
-9564,84	2116,00
-9542,06	2138,00
-9519,32	2451,00
-9496,64	2664,00
-9474,00	2732,00
-9451,41	2927,00
-9428,87	2924,00
-9406,37	2959,00
-9383,92	2650,00
-9361,52	2613,00
-9339,17	2898,00
-9316,86	3073,00
-9294,60	3676,00
-9272,38	4037,00
-9250,21	4507,00
-9228,09	4670,00
-9206,01	4583,00
-9183,98	4107,00
-9162,00	3868,00
-9140,06	3824,00
-9118,16	3655,00
-9096,31	3789,00
-9074,51	4200,00
-9052,75	4282,00
-9031,04	4208,00
-9009,37	3832,00
-8987,74	3491,00
-8966,16	3175,00
-8944,63	2762,00
-8923,14	2751,00
-8901,69	2834,00
-8880,29	2908,00
-8858,93	3388,00
-8837,61	3566,00
-8816,34	3817,00
-8795,11	3866,00
-8773,92	3563,00
-8752,78	3386,00
-8731,68	2953,00
-8710,62	3101,00
-8689,61	3035,00
-8668,63	3333,00
-8647,70	3688,00
-8626,82	3639,00
-8605,97	3690,00
-8585,17	3336,00
-8564,41	3089,00
-8543,69	2912,00
-8523,01	2688,00
-8502,37	2882,00
-8481,78	2943,00
-8461,23	3091,00
-8440,71	3457,00
-8420,24	3550,00
-8399,81	3757,00
-8379,42	3634,00
-8359,08	3518,00
-8338,77	3094,00
-8318,50	2912,00
-8298,27	2749,00
-8278,09	3044,00
-8257,94	3130,00
-8237,83	3414,00
-8217,76	3522,00
-8197,74	3573,00
-8177,75	3578,00
-8157,80	3184,00
-8137,89	2863,00
-8118,02	2740,00
-8098,19	2845,00
-8078,40	2817,00
-8058,65	2848,00
-8038,93	3012,00
-8019,26	2934,00
-7999,62	2972,00
-7980,02	2713,00
-7960,46	2515,00
-7940,94	2446,00
-7921,46	2404,00
-7902,01	2430,00
-7882,60	2529,00
-7863,23	2382,00
-7843,90	2575,00
-7824,61	2632,00
-7805,35	2703,00
-7786,13	2753,00
-7766,95	2772,00
-7747,80	2687,00
-7728,69	2579,00
-7709,62	2543,00
-7690,59	2573,00
-7671,59	2851,00
-7652,63	2753,00
-7633,70	2725,00
-7614,81	2714,00
-7595,96	2588,00
-7577,15	2212,00
-7558,37	2268,00
-7539,62	2428,00
-7520,91	2448,00
-7502,24	2561,00
-7483,60	2597,00
-7465,00	2460,00
-7446,44	2384,00
-7427,91	1926,00
-7409,41	1856,00
-7390,95	1835,00
-7372,53	1705,00
-7354,14	1686,00
-7335,78	1663,00
-7317,46	1899,00
-7299,18	1835,00
-7280,92	2095,00
-7262,71	2380,00
-7244,52	2550,00
-7226,38	2503,00
-7208,26	2422,00
-7190,18	2260,00
-7172,14	2180,00
-7154,12	2126,00
-7136,15	2173,00
-7118,20	2271,00
-7100,29	2421,00
-7082,41	2432,00
-7064,57	2232,00
-7046,76	2234,00
-7028,98	1904,00
-7011,24	1855,00
-6993,53	1550,00
-6975,85	1480,00
-6958,20	1338,00
-6940,59	1307,00
-6923,01	1289,00
-6905,46	1635,00
-6887,94	1658,00
-6870,46	2136,00
-6853,01	2141,00
-6835,59	2140,00
-6818,21	2004,00
-6800,85	1813,00
-6783,53	1527,00
-6766,24	1293,00
-6748,98	1259,00
-6731,76	1101,00
-6714,56	1015,00
-6697,40	947,00
-6680,26	1077,00
-6663,16	1231,00
-6646,09	1440,00
-6629,05	1702,00
-6612,05	1843,00
-6595,07	1805,00
-6578,13	1759,00
-6561,21	1403,00
-6544,33	1236,00
-6527,47	1037,00
-6510,65	967,00
-6493,86	864,00
-6477,10	947,00
-6460,36	996,00
-6443,66	915,00
-6426,99	982,00
-6410,35	958,00
-6393,74	1142,00
-6377,16	1049,00
-6360,61	1194,00
-6344,09	1245,00
-6327,59	1180,00
-6311,13	1462,00
-6294,70	1362,00
-6278,29	1510,00
-6261,92	1584,00
-6245,58	1765,00
-6229,26	1773,00
-6212,97	1640,00
-6196,72	1284,00
-6180,49	1248,00
-6164,29	849,00
-6148,12	890,00
-6131,98	858,00
-6115,86	629,00
-6099,78	627,00
-6083,72	691,00
-6067,69	611,00
-6051,69	723,00
-6035,72	876,00
-6019,78	883,00
-6003,87	1112,00
-5987,98	1267,00
-5972,12	1346,00
-5956,29	1251,00
-5940,49	1186,00
-5924,71	1177,00
-5908,96	962,00
-5893,24	929,00
-5877,55	872,00
-5861,89	902,00
-5846,25	696,00
-5830,64	872,00
-5815,05	841,00
-5799,50	864,00
-5783,97	887,00
-5768,47	950,00
-5752,99	1191,00
-5737,55	1256,00
-5722,12	1320,00
-5706,73	1302,00
-5691,36	1155,00
-5676,02	1003,00
-5660,71	840,00
-5645,42	821,00
-5630,16	1005,00
-5614,92	1023,00
-5599,71	948,00
-5584,53	1135,00
-5569,37	1042,00
-5554,24	1983,00
-5539,14	904,00
-5524,06	1039,00
-5509,01	1039,00
-5493,98	891,00
-5478,98	1064,00
-5464,00	939,00
-5449,05	835,00
-5434,13	942,00
-5419,23	874,00
-5404,36	783,00
-5389,51	930,00
-5374,69	1181,00
-5359,89	1452,00
-5345,12	1468,00
-5330,37	1418,00
-5315,65	1231,00
-5300,95	1186,00
-5286,28	998,00
-5271,63	846,00
-5257,01	981,00
-5242,41	989,00
-5227,84	874,00
-5213,29	843,00
-5198,76	769,00
-5184,26	825,00
-5169,79	775,00
-5155,33	914,00
-5140,91	939,00
-5126,51	1032,00
-5112,13	1037,00
-5097,77	1028,00
-5083,44	964,00
-5069,13	804,00
-5054,85	899,00
-5040,59	971,00
-5026,36	1014,00
-5012,15	1054,00
-4997,96	989,00
-4983,80	967,00
-4969,66	771,00
-4955,54	783,00
-4941,44	992,00
-4927,37	1078,00
-4913,33	1365,00
-4899,30	1320,00
-4885,30	1402,00
-4871,33	1052,00
-4857,37	852,00
-4843,44	800,00
-4829,53	915,00
-4815,65	894,00
-4801,79	825,00
-4787,95	940,00
-4774,13	838,00
-4760,34	713,00
-4746,56	844,00
-4732,82	728,00
-4719,09	922,00
-4705,38	1279,00
-4691,70	1277,00
-4678,04	1391,00
-4664,41	1200,00
-4650,79	1220,00
-4637,20	853,00
-4623,63	830,00
-4610,08	1037,00
-4596,56	1069,00
-4583,05	986,00
-4569,57	895,00
-4556,11	924,00
-4542,67	795,00
-4529,25	722,00
-4515,86	1010,00
-4502,49	1137,00
-4489,13	1192,00
-4475,80	1284,00
-4462,49	823,00
-4449,21	924,00
-4435,94	838,00
-4422,70	827,00
-4409,47	838,00
-4396,27	993,00
-4383,09	902,00
-4369,93	729,00
-4356,79	659,00
-4343,67	798,00
-4330,58	851,00
-4317,50	914,00
-4304,45	849,00
-4291,41	812,00
-4278,40	689,00
-4265,41	731,00
-4252,44	862,00
-4239,49	853,00
-4226,55	1041,00
-4213,65	861,00
-4200,76	842,00
-4187,89	769,00
-4175,04	686,00
-4162,21	699,00
-4149,40	826,00
-4136,61	646,00
-4123,85	564,00
-4111,10	741,00
-4098,37	759,00
-4085,66	720,00
-4072,98	770,00
-4060,31	681,00
-4047,66	760,00
-4035,04	870,00
-4022,43	716,00
-4009,84	687,00
-3997,27	547,00
-3984,72	652,00
-3972,19	772,00
-3959,69	707,00
-3947,20	653,00
-3934,73	619,00
-3922,27	585,00
-3909,84	638,00
-3897,43	711,00
-3885,04	681,00
-3872,67	658,00
-3860,31	602,00
-3847,98	761,00
-3835,66	695,00
-3823,36	656,00
-3811,09	610,00
-3798,83	657,00
-3786,59	658,00
-3774,37	773,00
-3762,17	585,00
-3749,98	658,00
-3737,82	571,00
-3725,67	773,00
-3713,55	578,00
-3701,44	719,00
-3689,35	624,00
-3677,28	769,00
-3665,22	728,00
-3653,19	670,00
-3641,17	646,00
-3629,18	628,00
-3617,20	654,00
-3605,24	720,00
-3593,30	737,00
-3581,37	657,00
-3569,47	671,00
-3557,58	685,00
-3545,71	727,00
-3533,86	709,00
-3522,02	615,00
-3510,21	643,00
-3498,41	692,00
-3486,63	639,00
-3474,87	620,00
-3463,12	644,00
-3451,40	605,00
-3439,69	701,00
-3428,00	640,00
-3416,33	705,00
-3404,67	595,00
-3393,03	659,00
-3381,41	744,00
-3369,81	673,00
-3358,22	677,00
-3346,66	770,00
-3335,10	628,00
-3323,57	612,00
-3312,06	658,00
-3300,56	708,00
-3289,08	604,00
-3277,61	655,00
-3266,16	697,00
-3254,73	566,00
-3243,32	640,00
-3231,92	635,00
-3220,55	705,00
-3209,18	765,00
-3197,84	531,00
-3186,51	599,00
-3175,20	620,00
-3163,90	572,00
-3152,63	703,00
-3141,36	613,00
-3130,12	692,00
-3118,89	694,00
-3107,68	560,00
-3096,49	685,00
-3085,31	588,00
-3074,15	696,00
-3063,00	684,00
-3051,87	696,00
-3040,76	627,00
-3029,67	679,00
-3018,59	841,00
-3007,52	799,00
-2996,48	741,00
-2985,44	681,00
-2974,43	602,00
-2963,43	614,00
-2952,45	626,00
-2941,48	710,00
-2930,53	645,00
-2919,60	549,00
-2908,68	585,00
-2897,78	640,00
-2886,89	715,00
-2876,02	727,00
-2865,17	568,00
-2854,33	702,00
-2843,50	664,00
-2832,70	701,00
-2821,90	590,00
-2811,13	744,00
-2800,37	728,00
-2789,62	569,00
-2778,89	691,00
-2768,18	745,00
-2757,48	716,00
-2746,80	746,00
-2736,13	576,00
-2725,48	722,00
-2714,84	578,00
-2704,22	731,00
-2693,61	672,00
-2683,02	647,00
-2672,45	666,00
-2661,89	665,00
-2651,34	634,00
-2640,81	726,00
-2630,30	726,00
-2619,80	660,00
-2609,31	687,00
-2598,84	681,00
-2588,39	672,00
-2577,95	657,00
-2567,52	498,00
-2557,11	556,00
-2546,71	634,00
-2536,33	767,00
-2525,97	708,00
-2515,62	776,00
-2505,28	613,00
-2494,96	736,00
-2484,65	769,00
-2474,36	949,00
-2464,08	662,00
-2453,82	802,00
-2443,57	629,00
-2433,33	572,00
-2423,11	714,00
-2412,91	700,00
-2402,72	634,00
-2392,54	647,00
-2382,38	648,00
-2372,23	698,00
-2362,09	1541,00
-2351,97	666,00
-2341,87	623,00
-2331,78	710,00
-2321,70	756,00
-2311,64	643,00
-2301,59	643,00
-2291,55	627,00
-2281,53	688,00
-2271,53	538,00
-2261,53	698,00
-2251,55	746,00
-2241,59	674,00
-2231,64	670,00
-2221,70	640,00
-2211,78	642,00
-2201,87	729,00
-2191,97	718,00
-2182,09	709,00
-2172,22	743,00
-2162,37	676,00
-2152,53	584,00
-2142,70	649,00
-2132,89	659,00
-2123,09	745,00
-2113,30	676,00
-2103,53	620,00
-2093,77	670,00
-2084,02	659,00
-2074,29	713,00
-2064,57	661,00
-2054,86	723,00
-2045,17	796,00
-2035,49	670,00
-2025,82	646,00
-2016,17	732,00
-2006,53	567,00
-1996,91	711,00
-1987,29	678,00
-1977,69	698,00
-1968,11	584,00
-1958,53	609,00
-1948,97	646,00
-1939,42	645,00
-1929,89	619,00
-1920,37	667,00
-1910,86	557,00
-1901,36	662,00
-1891,88	605,00
-1882,41	696,00
-1872,95	677,00
-1863,51	684,00
-1854,08	697,00
-1844,66	763,00
-1835,26	763,00
-1825,86	668,00
-1816,48	562,00
-1807,11	721,00
-1797,76	769,00
-1788,42	679,00
-1779,09	737,00
-1769,77	613,00
-1760,47	810,00
-1751,17	584,00
-1741,89	595,00
-1732,63	715,00
-1723,37	811,00
-1714,13	778,00
-1704,90	619,00
-1695,68	802,00
-1686,48	597,00
-1677,29	646,00
-1668,11	892,00
-1658,94	626,00
-1649,78	651,00
-1640,64	726,00
-1631,51	624,00
-1622,39	764,00
-1613,28	679,00
-1604,19	764,00
-1595,10	687,00
-1586,03	663,00
-1576,97	647,00
-1567,93	659,00
-1558,89	727,00
-1549,87	785,00
-1540,86	637,00
-1531,86	664,00
-1522,87	599,00
-1513,90	676,00
-1504,93	683,00
-1495,98	724,00
-1487,04	732,00
-1478,12	650,00
-1469,20	689,00
-1460,30	648,00
-1451,40	785,00
-1442,52	700,00
-1433,65	742,00
-1424,80	652,00
-1415,95	689,00
-1407,12	871,00
-1398,30	742,00
-1389,48	734,00
-1380,69	572,00
-1371,90	583,00
-1363,12	678,00
-1354,36	785,00
-1345,60	658,00
-1336,86	727,00
-1328,13	744,00
-1319,41	635,00
-1310,70	738,00
-1302,01	611,00
-1293,32	658,00
-1284,65	668,00
-1275,99	706,00
-1267,33	769,00
-1258,69	705,00
-1250,06	737,00
-1241,45	579,00
-1232,84	849,00
-1224,25	736,00
-1215,66	640,00
-1207,09	673,00
-1198,53	689,00
-1189,97	629,00
-1181,43	566,00
-1172,91	621,00
-1164,39	764,00
-1155,88	619,00
-1147,38	611,00
-1138,90	677,00
-1130,43	630,00
-1121,96	684,00
-1113,51	638,00
-1105,07	690,00
-1096,64	773,00
-1088,22	665,00
-1079,81	699,00
-1071,41	776,00
-1063,02	561,00
-1054,65	755,00
-1046,28	675,00
-1037,92	705,00
-1029,58	745,00
-1021,24	736,00
-1012,92	1010,00
-1004,61	688,00
-996,30	860,00
-988,01	573,00
-979,73	665,00
-971,46	813,00
-963,20	705,00
-954,95	601,00
-946,71	677,00
-938,48	785,00
-930,26	768,00
-922,06	679,00
-913,86	607,00
-905,67	585,00
-897,49	708,00
-889,33	572,00
-881,17	722,00
-873,02	682,00
-864,89	569,00
-856,76	597,00
-848,65	655,00
-840,54	717,00
-832,45	638,00
-824,36	642,00
-816,29	670,00
-808,22	773,00
-800,17	744,00
-792,12	721,00
-784,09	684,00
-776,06	578,00
-768,05	665,00
-760,04	619,00
-752,05	592,00
-744,07	703,00
-736,09	704,00
-728,13	503,00
-720,17	707,00
-712,23	609,00
-704,29	621,00
-696,37	670,00
-688,45	798,00
-680,55	667,00
-672,65	610,00
-664,77	716,00
-656,89	653,00
-649,03	629,00
-641,17	688,00
-633,32	710,00
-625,49	738,00
-617,66	617,00
-609,84	736,00
-602,03	610,00
-594,23	776,00
-586,45	691,00
-578,67	648,00
-570,90	627,00
-563,14	561,00
-555,39	727,00
-547,65	740,00
-539,91	687,00
-532,19	671,00
-524,48	757,00
-516,78	634,00
-509,08	758,00
-501,40	750,00
-493,72	722,00
-486,06	718,00
-478,40	765,00
-470,76	618,00
-463,12	656,00
-455,49	645,00
-447,87	660,00
-440,26	696,00
-432,66	677,00
-425,07	753,00
-417,49	731,00
-409,92	573,00
-402,35	675,00
-394,80	554,00
-387,25	734,00
-379,72	718,00
-372,19	642,00
-364,67	812,00
-357,17	626,00
-349,67	767,00
-342,18	718,00
-334,69	700,00
-327,22	731,00
-319,76	750,00
-312,30	674,00
-304,86	740,00
-297,42	743,00
-290,00	739,00
-282,58	650,00
-275,17	713,00
-267,77	852,00
-260,37	735,00
-252,99	866,00
-245,62	756,00
-238,25	764,00
-230,90	698,00
-223,55	803,00
-216,21	794,00
-208,88	952,00
-201,56	793,00
-194,25	854,00
-186,94	1000,00
-179,65	898,00
-172,36	994,00
-165,08	1083,00
-157,81	1117,00
-150,55	1128,00
-143,30	1272,00
-136,06	1120,00
-128,82	1276,00
-121,60	1388,00
-114,38	1454,00
-107,17	1603,00
-99,97	1839,00
-92,78	1795,00
-85,60	2008,00
-78,42	2331,00
-71,25	2437,00
-64,10	2765,00
-56,95	3247,00
-49,81	3671,00
-42,67	4518,00
-35,55	5340,00
-28,43	6984,00
-21,33	11132,00
-14,23	34888,00
-7,14	57498,00
-0,05	57284,00
7,02	57012,00
14,09	57319,00
21,14	29945,00
28,19	13181,00
35,23	8552,00
42,27	6840,00
49,29	5546,00
56,31	4780,00
63,32	4180,00
70,32	3538,00
77,31	3124,00
84,29	2692,00
91,27	2527,00
98,23	2437,00
105,19	2247,00
112,14	2610,00
119,09	3704,00
126,02	5472,00
132,95	6235,00
139,87	6456,00
146,78	6663,00
153,68	6669,00
160,58	6584,00
167,46	6336,00
174,34	6510,00
181,21	6518,00
188,08	6371,00
194,93	6394,00
201,78	6405,00
208,62	6503,00
215,45	6505,00
222,27	6470,00
229,09	6498,00
235,90	6460,00
242,70	6442,00
249,49	6425,00
256,27	6360,00
263,05	6230,00
269,82	6300,00
276,58	6317,00
283,33	6289,00
290,08	6193,00
296,82	6135,00
303,55	6108,00
310,27	6016,00
316,98	6047,00
323,69	6018,00
330,39	5935,00
337,08	6027,00
343,76	6009,00
350,44	6067,00
357,11	6073,00
363,77	5989,00
370,42	5933,00
377,07	5965,00
383,71	5944,00
390,34	5945,00
396,96	6060,00
403,58	5919,00
410,19	6095,00
416,79	6103,00
423,38	6115,00
429,97	5987,00
436,55	5798,00
443,12	5794,00
449,68	5852,00
456,24	5717,00
462,79	5693,00
469,33	5774,00
475,86	5788,00
482,39	5618,00
488,91	5591,00
495,42	5539,00
501,93	5650,00
508,42	5524,00
514,91	5390,00
521,40	5357,00
527,87	5553,00
534,34	5356,00
540,80	5433,00
547,25	5480,00
553,70	5494,00
560,14	5450,00
566,57	5496,00
573,00	5288,00
579,41	5437,00
585,83	5493,00
592,23	5252,00
598,62	5336,00
605,01	5349,00
611,40	5392,00
617,77	5349,00
624,14	5310,00
630,50	5247,00
636,85	5379,00
643,20	5285,00
649,54	5109,00
655,87	5154,00
662,20	5293,00
668,52	5216,00
674,83	5182,00
681,13	5136,00
687,43	5230,00
693,72	5050,00
700,00	5068,00
706,28	5012,00
712,55	4994,00
718,81	5061,00
725,07	5134,00
731,32	5057,00
737,56	5145,00
743,79	5141,00
750,02	5096,00
756,24	4945,00
762,46	4943,00
768,67	5147,00
774,87	4993,00
781,06	4923,00
787,25	5014,00
793,43	4975,00
799,60	5095,00
805,77	5162,00
811,93	5016,00
818,08	5013,00
824,23	4956,00
830,37	5130,00
836,50	5016,00
842,63	4871,00
848,75	4931,00
854,87	4942,00
860,97	5009,00
867,07	4812,00
873,17	4995,00
879,25	4909,00
885,33	4881,00
891,41	4934,00
897,47	4916,00
903,53	4892,00
909,59	4809,00
915,63	4785,00
921,67	4790,00
927,71	4741,00
933,74	4900,00
939,76	4592,00
945,77	4692,00
951,78	4879,00
957,78	4594,00
963,78	4751,00
969,77	4664,00
975,75	4605,00
981,72	4772,00
987,69	5663,00
993,66	4818,00
999,61	4738,00
1005,56	4631,00
1011,51	4641,00
1017,44	4660,00
1023,37	4686,00
1029,30	4624,00
1035,22	4739,00
1041,13	4674,00
1047,03	4708,00
1052,93	4822,00
1058,83	5111,00
1064,71	5109,00
1070,59	5060,00
1076,47	4816,00
1082,33	4856,00
1088,20	4821,00
1094,05	4668,00
1099,90	4523,00
1105,74	4537,00
1111,58	4696,00
1117,41	4588,00
1123,23	4879,00
1129,05	5049,00
1134,86	4982,00
1140,67	4705,00
1146,47	4619,00
1152,26	4712,00
1158,05	4565,00
1163,83	4593,00
1169,60	4542,00
1175,37	4648,00
1181,13	4587,00
1186,89	4386,00
1192,64	4466,00
1198,38	4708,00
1204,12	4460,00
1209,85	4573,00
1215,58	4501,00
1221,30	4543,00
1227,02	4543,00
1232,72	4542,00
1238,43	4402,00
1244,12	4525,00
1249,81	4577,00
1255,50	4681,00
1261,17	4535,00
1266,85	4509,00
1272,51	4587,00
1278,17	4717,00
1283,83	4729,00
1289,47	4996,00
1295,12	5450,00
1300,75	5282,00
1306,38	5157,00
1312,01	4864,00
1317,63	4636,00
1323,24	4599,00
1328,85	4676,00
1334,45	4601,00
1340,04	4627,00
1345,63	4688,00
1351,22	4761,00
1356,80	4689,00
1362,37	4764,00
1367,93	4642,00
1373,49	4816,00
1379,05	4720,00
1384,60	4704,00
1390,14	4744,00
1395,68	4629,00
1401,21	4697,00
1406,74	4746,00
1412,26	4825,00
1417,77	5073,00
1423,28	4930,00
1428,78	5150,00
1434,28	5431,00
1439,77	5474,00
1445,26	5491,00
1450,74	5492,00
1456,22	5310,00
1461,68	5199,00
1467,15	5016,00
1472,61	4814,00
1478,06	4884,00
1483,51	4705,00
1488,95	4527,00
1494,38	4678,00
1499,81	4408,00
1505,24	4457,00
1510,65	4290,00
1516,07	4407,00
1521,48	4258,00
1526,88	4318,00
1532,27	4273,00
1537,67	4246,00
1543,05	4249,00
1548,43	4171,00
1553,81	4362,00
1559,18	4085,00
1564,54	4229,00
1569,90	4125,00
1575,25	4159,00
1580,60	4097,00
1585,94	4295,00
1591,28	4151,00
1596,61	4121,00
1601,93	4226,00
1607,25	4120,00
1612,57	4027,00
1617,88	4057,00
1623,18	4056,00
1628,48	4035,00
1633,77	4090,00
1639,06	4014,00
1644,34	4006,00
1649,62	3863,00
1654,89	4087,00
1660,16	3898,00
1665,42	4078,00
1670,67	3904,00
1675,92	3842,00
1681,17	3821,00
1686,41	3886,00
1691,64	3856,00
1696,87	3840,00
1702,10	3777,00
1707,32	3773,00
1712,53	3686,00
1717,74	3721,00
1722,94	3835,00
1728,14	3770,00
1733,33	3723,00
1738,52	3620,00
1743,70	3733,00
1748,88	3676,00
1754,05	3692,00
1759,22	3568,00
1764,38	2808,00
1769,53	3678,00
1774,69	3650,00
1779,83	3525,00
1784,97	3596,00
1790,11	3541,00
1795,24	3385,00
1800,36	3439,00
1805,48	3451,00
1810,60	3514,00
1815,71	3416,00
1820,82	3379,00
1825,92	3461,00
1831,01	3451,00
1836,10	3406,00
1841,19	3481,00
1846,26	3248,00
1851,34	3560,00
1856,41	3465,00
1861,47	3414,00
1866,53	3517,00
1871,59	3322,00
1876,64	3354,00
1881,68	3216,00
1886,72	3184,00
1891,76	3288,00
1896,79	3246,00
1901,81	3165,00
1906,83	3252,00
1911,85	3111,00
1916,86	3100,00
1921,86	3049,00
1926,86	2951,00
1931,86	3166,00
1936,85	3016,00
1941,83	3009,00
1946,81	2942,00
1951,79	2964,00
1956,76	2960,00
1961,72	2945,00
1966,68	2920,00
1971,64	2948,00
1976,59	3030,00
1981,54	2952,00
1986,48	2974,00
1991,42	2788,00
1996,35	3072,00
2001,27	2864,00
2006,20	2932,00
2011,11	2944,00
2016,03	2865,00
2020,93	2816,00
2025,84	2852,00
2030,73	2831,00
2035,63	2699,00
2040,52	2869,00
2045,40	2826,00
2050,28	2686,00
2055,15	2790,00
2060,02	2669,00
2064,89	2841,00
2069,75	2722,00
2074,60	2723,00
2079,46	2598,00
2084,30	2672,00
2089,14	2627,00
2093,98	2726,00
2098,81	2765,00
2103,64	2762,00
2108,46	2809,00
2113,28	2747,00
2118,09	2679,00
2122,90	2665,00
2127,70	2646,00
2132,50	2644,00
2137,30	2576,00
2142,09	2583,00
2146,87	2475,00
2151,66	2638,00
2156,43	2544,00
2161,20	2596,00
2165,97	2656,00
2170,73	2528,00
2175,49	2665,00
2180,24	2596,00
2184,99	2656,00
2189,74	2633,00
2194,48	2575,00
2199,21	2571,00
2203,94	2568,00
2208,67	2434,00
2213,39	2346,00
2218,11	2466,00
2222,82	2445,00
2227,53	2533,00
2232,23	2448,00
2236,93	2414,00
2241,63	2334,00
2246,32	2397,00
2251,00	2430,00
2255,68	2382,00
2260,36	2362,00
2265,03	2395,00
2269,70	2472,00
2274,36	2328,00
2279,02	2424,00
2283,68	2350,00
2288,33	2335,00
2292,97	2328,00
2297,61	2257,00
2302,25	2337,00
2306,88	2221,00
2311,51	2170,00
2316,14	2254,00
2320,75	2217,00
2325,37	2168,00
2329,98	2193,00
2334,59	2219,00
2339,19	2186,00
2343,79	2020,00
2348,38	2193,00
2352,97	2118,00
2357,55	2155,00
2362,13	2112,00
2366,71	2052,00
2371,28	2211,00
2375,85	2120,00
2380,41	2171,00
2384,97	2134,00
2389,52	2111,00
2394,07	2055,00
2398,62	2034,00
2403,16	2130,00
2407,70	1940,00
2412,23	2003,00
2416,76	2053,00
2421,29	2078,00
2425,81	2097,00
2430,32	2185,00
2434,84	1950,00
2439,34	1926,00
2443,85	2142,00
2448,35	1922,00
2452,84	1964,00
2457,33	1954,00
2461,82	1827,00
2466,30	1836,00
2470,78	1962,00
2475,25	1867,00
2479,72	1917,00
2484,19	2035,00
2488,65	1960,00
2493,11	1865,00
2497,56	2015,00
2502,01	1786,00
2506,46	1882,00
2510,90	1851,00
2515,34	1727,00
2519,77	1913,00
2524,20	1829,00
2528,62	1812,00
2533,04	1956,00
2537,46	1783,00
2541,87	1746,00
2546,28	1772,00
2550,68	1891,00
2555,08	1768,00
2559,48	1654,00
2563,87	1661,00
2568,26	1631,00
2572,64	1751,00
2577,02	1660,00
2581,40	1588,00
2585,77	1716,00
2590,14	1614,00
2594,50	1605,00
2598,86	1688,00
2603,22	1666,00
2607,57	1559,00
2611,92	1602,00
2616,26	1700,00
2620,60	1583,00
2624,94	1671,00
2629,27	1648,00
2633,60	1574,00
2637,92	1682,00
2642,24	1630,00
2646,56	1564,00
2650,87	1456,00
2655,18	1604,00
2659,48	1470,00
2663,78	1520,00
2668,08	1479,00
2672,37	1610,00
2676,66	1518,00
2680,95	1531,00
2685,23	1624,00
2689,50	1538,00
2693,78	1558,00
2698,05	1451,00
2702,31	1476,00
2706,57	1598,00
2710,83	1639,00
2715,08	1734,00
2719,33	1665,00
2723,58	1594,00
2727,82	1659,00
2732,06	1602,00
2736,29	1666,00
2740,53	1515,00
2744,75	1479,00
2748,97	1491,00
2753,19	1582,00
2757,41	1523,00
2761,62	1614,00
2765,83	1536,00
2770,03	1404,00
2774,23	1482,00
2778,43	1498,00
2782,62	1586,00
2786,81	1544,00
2791,00	1500,00
2795,18	1500,00
2799,35	1517,00
2803,53	1560,00
2807,70	1535,00
2811,86	1469,00
2816,03	1643,00
2820,19	1584,00
2824,34	1585,00
2828,49	1645,00
2832,64	1664,00
2836,78	1841,00
2840,92	1918,00
2845,06	2182,00
2849,19	2419,00
2853,32	2342,00
2857,45	2306,00
2861,57	2380,00
2865,69	2359,00
2869,80	2359,00
2873,91	2303,00
2878,02	2476,00
2882,12	2525,00
2886,22	2476,00
2890,32	2425,00
2894,41	2379,00
2898,50	2217,00
2902,58	2165,00
2906,67	2158,00
2910,74	2043,00
2914,82	1918,00
2918,89	2055,00
2922,96	1799,00
2927,02	1765,00
2931,08	1719,00
2935,13	1623,00
2939,19	1708,00
2943,24	1570,00
2947,28	1558,00
2951,32	1425,00
2955,36	1397,00
2959,40	1577,00
2963,43	1379,00
2967,46	1328,00
2971,48	1377,00
2975,50	1279,00
2979,52	1334,00
2983,53	1305,00
2987,54	1262,00
2991,55	1203,00
2995,55	1244,00
2999,55	1167,00
3003,54	1213,00
3007,54	1158,00
3011,53	1182,00
3015,51	1194,00
3019,49	1196,00
3023,47	1010,00
3027,45	1154,00
3031,42	1140,00
3035,39	1051,00
3039,35	1099,00
3043,31	1124,00
3047,27	1118,00
3051,22	1088,00
3055,17	996,00
3059,12	1042,00
3063,06	1091,00
3067,00	945,00
3070,94	980,00
3074,87	1215,00
3078,80	1006,00
3082,73	1082,00
3086,65	918,00
3090,57	952,00
3094,49	962,00
3098,40	997,00
3102,31	983,00
3106,22	1028,00
3110,12	897,00
3114,02	923,00
3117,92	959,00
3121,81	998,00
3125,70	980,00
3129,58	901,00
3133,47	850,00
3137,34	965,00
3141,22	1001,00
3145,09	951,00
3148,96	1015,00
3152,83	1019,00
3156,69	991,00
3160,55	914,00
3164,40	1023,00
3168,26	945,00
3172,10	1021,00
3175,95	934,00
3179,79	945,00
3183,63	994,00
3187,47	980,00
3191,30	979,00
3195,13	942,00
3198,95	854,00
3202,78	940,00
3206,60	867,00
3210,41	809,00
3214,23	842,00
3218,03	909,00
3221,84	887,00
3225,64	946,00
3229,44	852,00
3233,24	838,00
3237,03	878,00
3240,82	831,00
3244,61	799,00
3248,39	817,00
3252,17	876,00
3255,95	937,00
3259,72	907,00
3263,49	984,00
3267,26	824,00
3271,03	866,00
3274,79	772,00
3278,54	761,00
3282,30	819,00
3286,05	886,00
3289,80	907,00
3293,54	872,00
3297,29	922,00
3301,02	788,00
3304,76	830,00
3308,49	860,00
3312,22	756,00
3315,95	865,00
3319,67	722,00
3323,39	903,00
3327,10	876,00
3330,82	795,00
3334,53	804,00
3338,24	816,00
3341,94	735,00
3345,64	856,00
3349,34	766,00
3353,03	868,00
3356,72	830,00
3360,41	856,00
3364,10	786,00
3367,78	776,00
3371,46	823,00
3375,13	751,00
3378,81	764,00
3382,48	717,00
3386,14	799,00
3389,81	861,00
3393,47	797,00
3397,12	851,00
3400,78	736,00
3404,43	884,00
3408,08	716,00
3411,72	691,00
3415,36	698,00
3419,00	791,00
3422,64	768,00
3426,27	771,00
3429,90	757,00
3433,53	680,00
3437,15	757,00
3440,77	649,00
3444,39	685,00
3448,00	768,00
3451,62	795,00
3455,22	705,00
3458,83	645,00
3462,43	736,00
3466,03	771,00
3469,63	651,00
3473,22	679,00
3476,81	606,00
3480,40	793,00
3483,99	632,00
3487,57	713,00
3491,15	690,00
3494,72	744,00
3498,29	781,00
3501,86	678,00
3505,43	730,00
3508,99	605,00
3512,56	575,00
3516,11	780,00
3519,67	700,00
3523,22	675,00
3526,77	694,00
3530,32	828,00
3533,86	714,00
3537,40	867,00
3540,94	795,00
3544,47	595,00
3548,00	611,00
3551,53	693,00
3555,06	614,00
3558,58	709,00
3562,10	782,00
3565,62	605,00
3569,13	718,00
3572,64	782,00
3576,15	624,00
3579,66	669,00
3583,16	634,00
3586,66	660,00
3590,16	647,00
3593,65	647,00
3597,14	653,00
3600,63	617,00
3604,11	726,00
3607,60	657,00
3611,08	652,00
3614,55	676,00
3618,03	663,00
3621,50	643,00
3624,97	619,00
3628,43	637,00
3631,90	664,00
3635,36	598,00
3638,81	661,00
3642,27	620,00
3645,72	683,00
3649,17	586,00
3652,61	531,00
3656,06	588,00
3659,50	676,00
3662,93	600,00
3666,37	627,00
3669,80	805,00
3673,23	687,00
3676,65	631,00
3680,08	675,00
3683,50	553,00
3686,92	589,00
3690,33	646,00
3693,74	604,00
3697,15	589,00
3700,56	689,00
3703,96	559,00
3707,36	549,00
3710,76	547,00
3714,16	533,00
3717,55	583,00
3720,94	592,00
3724,33	600,00
3727,71	638,00
3731,10	596,00
3734,48	650,00
3737,85	588,00
3741,23	670,00
3744,60	578,00
3747,97	447,00
3751,33	667,00
3754,69	581,00
3758,05	597,00
3761,41	487,00
3764,77	574,00
3768,12	549,00
3771,47	427,00
3774,82	574,00
3778,16	-1,00
3781,50	9,00
3784,84	6,00
3788,18	8,00
>>>>>End Processed Spectral Data<<<<<
