SpectraSuite Data File
++++++++++++++++++++++++++++++++++++
Date: Mon Jan 05 16:29:04 ICT 2026
User: Administrator
Dark Spectrum Present: Yes
Reference Spectrum Present: No
Number of Sampled Component Spectra: 1
Spectrometers: MAYP113682
Integration Time (usec): 3000000 (MAYP113682)
Spectra Averaged: 1 (MAYP113682)
Boxcar Smoothing: 0 (MAYP113682)
Correct for Electrical Dark: No (MAYP113682)
Strobe/Lamp Enabled: No (MAYP113682)
Correct for Detector Non-linearity: No (MAYP113682)
Correct for Stray Light: No (MAYP113682)
Number of Pixels in Processed Spectrum: 2068
>>>>>Begin Processed Spectral Data<<<<<
-37534,58	21,00
-37414,56	9,00
-37295,11	6,00
-37176,24	3,00
-37057,95	422,00
-36940,22	521,00
-36823,05	517,00
-36706,45	611,00
-36590,40	595,00
-36474,90	557,00
-36359,95	635,00
-36245,55	652,00
-36131,68	518,00
-36018,35	580,00
-35905,55	562,00
-35793,29	657,00
-35681,54	571,00
-35570,32	626,00
-35459,62	552,00
-35349,43	694,00
-35239,75	653,00
-35130,58	532,00
-35021,91	623,00
-34913,74	587,00
-34806,07	618,00
-34698,89	614,00
-34592,20	537,00
-34486,00	569,00
-34380,28	598,00
-34275,04	586,00
-34170,27	571,00
-34065,98	676,00
-33962,16	681,00
-33858,81	603,00
-33755,92	593,00
-33653,49	686,00
-33551,52	684,00
-33450,01	666,00
-33348,94	674,00
-33248,33	573,00
-33148,16	652,00
-33048,43	555,00
-32949,14	793,00
-32850,29	680,00
-32751,87	626,00
-32653,89	699,00
-32556,33	764,00
-32459,20	638,00
-32362,49	685,00
-32266,19	691,00
-32170,32	529,00
-32074,86	664,00
-31979,82	707,00
-31885,18	645,00
-31790,95	651,00
-31697,12	716,00
-31603,69	747,00
-31510,67	678,00
-31418,04	713,00
-31325,80	641,00
-31233,95	625,00
-31142,49	537,00
-31051,42	622,00
-30960,73	709,00
-30870,43	741,00
-30780,50	689,00
-30690,95	687,00
-30601,77	787,00
-30512,97	642,00
-30424,53	628,00
-30336,46	547,00
-30248,76	603,00
-30161,42	705,00
-30074,44	660,00
-29987,81	667,00
-29901,55	772,00
-29815,63	609,00
-29730,07	673,00
-29644,86	738,00
-29560,00	713,00
-29475,48	644,00
-29391,30	644,00
-29307,47	626,00
-29223,97	728,00
-29140,81	655,00
-29057,99	711,00
-28975,50	578,00
-28893,34	712,00
-28811,51	632,00
-28730,00	726,00
-28648,82	736,00
-28567,97	628,00
-28487,43	629,00
-28407,21	620,00
-28327,32	620,00
-28247,73	707,00
-28168,46	584,00
-28089,50	704,00
-28010,85	564,00
-27932,51	697,00
-27854,48	630,00
-27776,75	603,00
-27699,32	699,00
-27622,19	706,00
-27545,37	733,00
-27468,84	746,00
-27392,60	682,00
-27316,66	707,00
-27241,01	632,00
-27165,66	624,00
-27090,59	543,00
-27015,81	757,00
-26941,31	764,00
-26867,10	573,00
-26793,17	757,00
-26719,52	718,00
-26646,15	617,00
-26573,06	552,00
-26500,24	666,00
-26427,70	694,00
-26355,43	624,00
-26283,43	693,00
-26211,71	683,00
-26140,25	700,00
-26069,06	666,00
-25998,13	632,00
-25927,46	567,00
-25857,06	566,00
-25786,92	648,00
-25717,04	585,00
-25647,42	656,00
-25578,05	583,00
-25508,94	613,00
-25440,09	661,00
-25371,48	668,00
-25303,13	696,00
-25235,02	610,00
-25167,17	599,00
-25099,56	601,00
-25032,19	595,00
-24965,07	589,00
-24898,20	565,00
-24831,56	555,00
-24765,17	649,00
-24699,01	632,00
-24633,10	612,00
-24567,41	623,00
-24501,97	601,00
-24436,75	601,00
-24371,77	715,00
-24307,03	580,00
-24242,51	638,00
-24178,22	587,00
-24114,16	606,00
-24050,32	668,00
-23986,71	608,00
-23923,32	659,00
-23860,16	709,00
-23797,22	650,00
-23734,50	663,00
-23672,00	634,00
-23609,71	600,00
-23547,65	638,00
-23485,80	579,00
-23424,16	598,00
-23362,74	731,00
-23301,53	617,00
-23240,54	479,00
-23179,75	593,00
-23119,17	567,00
-23058,80	590,00
-22998,64	781,00
-22938,68	621,00
-22878,93	572,00
-22819,39	623,00
-22760,04	616,00
-22700,90	640,00
-22641,96	638,00
-22583,22	636,00
-22524,68	596,00
-22466,33	564,00
-22408,19	670,00
-22350,23	564,00
-22292,48	603,00
-22234,92	629,00
-22177,55	773,00
-22120,37	730,00
-22063,38	540,00
-22006,58	668,00
-21949,98	583,00
-21893,56	512,00
-21837,33	662,00
-21781,28	596,00
-21725,42	587,00
-21669,74	679,00
-21614,25	610,00
-21558,94	663,00
-21503,81	677,00
-21448,86	710,00
-21394,10	565,00
-21339,51	601,00
-21285,10	539,00
-21230,86	641,00
-21176,81	628,00
-21122,93	665,00
-21069,22	516,00
-21015,69	603,00
-20962,33	630,00
-20909,14	630,00
-20856,13	656,00
-20803,28	651,00
-20750,61	640,00
-20698,10	501,00
-20645,76	609,00
-20593,59	741,00
-20541,59	687,00
-20489,75	687,00
-20438,07	519,00
-20386,56	662,00
-20335,22	535,00
-20284,03	545,00
-20233,01	591,00
-20182,15	614,00
-20131,45	586,00
-20080,91	544,00
-20030,52	620,00
-19980,30	648,00
-19930,23	550,00
-19880,32	710,00
-19830,56	637,00
-19780,96	590,00
-19731,52	610,00
-19682,23	668,00
-19633,09	608,00
-19584,10	533,00
-19535,26	702,00
-19486,58	676,00
-19438,04	585,00
-19389,66	667,00
-19341,42	606,00
-19293,33	652,00
-19245,39	630,00
-19197,60	719,00
-19149,95	695,00
-19102,45	569,00
-19055,09	543,00
-19007,87	602,00
-18960,80	727,00
-18913,87	675,00
-18867,09	671,00
-18820,44	735,00
-18773,94	642,00
-18727,57	644,00
-18681,35	528,00
-18635,26	664,00
-18589,31	571,00
-18543,50	600,00
-18497,83	668,00
-18452,29	652,00
-18406,89	544,00
-18361,63	769,00
-18316,50	638,00
-18271,50	646,00
-18226,63	766,00
-18181,90	644,00
-18137,30	727,00
-18092,84	572,00
-18048,50	668,00
-18004,29	585,00
-17960,22	596,00
-17916,27	565,00
-17872,45	681,00
-17828,76	724,00
-17785,20	706,00
-17741,77	625,00
-17698,46	680,00
-17655,28	554,00
-17612,22	620,00
-17569,29	598,00
-17526,48	698,00
-17483,79	714,00
-17441,23	576,00
-17398,79	674,00
-17356,48	522,00
-17314,28	713,00
-17272,21	679,00
-17230,26	673,00
-17188,42	646,00
-17146,71	707,00
-17105,12	601,00
-17063,64	593,00
-17022,28	539,00
-16981,04	449,00
-16939,92	599,00
-16898,91	802,00
-16858,02	649,00
-16817,25	734,00
-16776,59	545,00
-16736,04	560,00
-16695,61	574,00
-16655,29	589,00
-16615,09	542,00
-16574,99	609,00
-16535,01	581,00
-16495,15	673,00
-16455,39	634,00
-16415,74	508,00
-16376,21	618,00
-16336,78	589,00
-16297,46	605,00
-16258,26	565,00
-16219,16	605,00
-16180,17	679,00
-16141,28	716,00
-16102,51	629,00
-16063,84	564,00
-16025,27	695,00
-15986,82	561,00
-15948,46	625,00
-15910,22	730,00
-15872,07	590,00
-15834,04	646,00
-15796,10	526,00
-15758,27	738,00
-15720,54	641,00
-15682,91	621,00
-15645,39	723,00
-15607,97	661,00
-15570,64	601,00
-15533,42	711,00
-15496,30	558,00
-15459,28	660,00
-15422,36	592,00
-15385,54	568,00
-15348,82	693,00
-15312,19	683,00
-15275,66	520,00
-15239,23	630,00
-15202,90	643,00
-15166,67	591,00
-15130,53	731,00
-15094,48	679,00
-15058,54	562,00
-15022,68	571,00
-14986,93	563,00
-14951,26	704,00
-14915,69	653,00
-14880,22	578,00
-14844,84	610,00
-14809,55	616,00
-14774,35	615,00
-14739,25	552,00
-14704,24	639,00
-14669,32	629,00
-14634,49	581,00
-14599,75	626,00
-14565,10	615,00
-14530,55	661,00
-14496,08	682,00
-14461,70	703,00
-14427,41	572,00
-14393,21	510,00
-14359,10	603,00
-14325,07	614,00
-14291,14	587,00
-14257,29	680,00
-14223,52	633,00
-14189,85	697,00
-14156,26	653,00
-14122,76	547,00
-14089,34	599,00
-14056,01	661,00
-14022,76	626,00
-13989,60	691,00
-13956,52	661,00
-13923,53	605,00
-13890,62	612,00
-13857,79	560,00
-13825,05	578,00
-13792,39	552,00
-13759,81	600,00
-13727,31	557,00
-13694,90	693,00
-13662,57	655,00
-13630,31	743,00
-13598,14	680,00
-13566,05	603,00
-13534,05	522,00
-13502,12	625,00
-13470,27	555,00
-13438,50	804,00
-13406,80	473,00
-13375,19	614,00
-13343,66	672,00
-13312,20	639,00
-13280,83	508,00
-13249,53	632,00
-13218,30	536,00
-13187,16	605,00
-13156,09	796,00
-13125,10	619,00
-13094,18	549,00
-13063,34	664,00
-13032,58	590,00
-13001,89	694,00
-12971,28	715,00
-12940,74	626,00
-12910,27	695,00
-12879,88	693,00
-12849,57	655,00
-12819,33	660,00
-12789,16	667,00
-12759,06	705,00
-12729,04	601,00
-12699,09	1692,00
-12669,21	638,00
-12639,41	709,00
-12609,68	643,00
-12580,02	601,00
-12550,43	704,00
-12520,91	569,00
-12491,46	566,00
-12462,08	543,00
-12432,77	648,00
-12403,54	610,00
-12374,37	539,00
-12345,27	682,00
-12316,24	647,00
-12287,29	636,00
-12258,40	531,00
-12229,57	677,00
-12200,82	593,00
-12172,14	679,00
-12143,52	488,00
-12114,97	676,00
-12086,49	672,00
-12058,07	692,00
-12029,73	557,00
-12001,44	627,00
-11973,23	593,00
-11945,08	575,00
-11917,00	667,00
-11888,98	559,00
-11861,03	705,00
-11833,15	658,00
-11805,32	724,00
-11777,57	710,00
-11749,88	662,00
-11722,25	589,00
-11694,69	620,00
-11667,19	649,00
-11639,75	698,00
-11612,38	631,00
-11585,07	603,00
-11557,83	630,00
-11530,65	800,00
-11503,53	514,00
-11476,47	652,00
-11449,48	606,00
-11422,54	709,00
-11395,67	699,00
-11368,86	701,00
-11342,11	588,00
-11315,43	624,00
-11288,80	575,00
-11262,23	622,00
-11235,73	603,00
-11209,28	831,00
-11182,90	618,00
-11156,57	581,00
-11130,31	735,00
-11104,10	618,00
-11077,96	650,00
-11051,87	571,00
-11025,84	588,00
-10999,87	590,00
-10973,96	641,00
-10948,11	589,00
-10922,31	662,00
-10896,58	628,00
-10870,90	713,00
-10845,28	656,00
-10819,71	610,00
-10794,20	649,00
-10768,75	644,00
-10743,36	669,00
-10718,02	541,00
-10692,74	679,00
-10667,52	661,00
-10642,35	675,00
-10617,24	714,00
-10592,18	660,00
-10567,18	643,00
-10542,23	660,00
-10517,34	593,00
-10492,51	690,00
-10467,72	580,00
-10443,00	660,00
-10418,32	605,00
-10393,70	709,00
-10369,14	653,00
-10344,63	601,00
-10320,17	649,00
-10295,77	567,00
-10271,42	545,00
-10247,12	659,00
-10222,88	683,00
-10198,68	570,00
-10174,54	594,00
-10150,46	681,00
-10126,42	818,00
-10102,44	501,00
-10078,51	580,00
-10054,63	637,00
-10030,80	619,00
-10007,03	655,00
-9983,30	569,00
-9959,63	585,00
-9936,01	689,00
-9912,44	502,00
-9888,92	583,00
-9865,44	552,00
-9842,02	533,00
-9818,65	632,00
-9795,33	471,00
-9772,06	561,00
-9748,84	470,00
-9725,67	507,00
-9702,55	491,00
-9679,47	508,00
-9656,45	635,00
-9633,47	411,00
-9610,55	381,00
-9587,67	524,00
-9564,84	582,00
-9542,06	417,00
-9519,32	448,00
-9496,64	575,00
-9474,00	334,00
-9451,41	443,00
-9428,87	473,00
-9406,37	534,00
-9383,92	264,00
-9361,52	191,00
-9339,17	378,00
-9316,86	259,00
-9294,60	329,00
-9272,38	351,00
-9250,21	386,00
-9228,09	328,00
-9206,01	399,00
-9183,98	202,00
-9162,00	155,00
-9140,06	342,00
-9118,16	245,00
-9096,31	139,00
-9074,51	225,00
-9052,75	334,00
-9031,04	391,00
-9009,37	272,00
-8987,74	292,00
-8966,16	354,00
-8944,63	283,00
-8923,14	338,00
-8901,69	383,00
-8880,29	247,00
-8858,93	438,00
-8837,61	441,00
-8816,34	397,00
-8795,11	355,00
-8773,92	290,00
-8752,78	447,00
-8731,68	303,00
-8710,62	443,00
-8689,61	268,00
-8668,63	440,00
-8647,70	494,00
-8626,82	435,00
-8605,97	531,00
-8585,17	409,00
-8564,41	398,00
-8543,69	429,00
-8523,01	274,00
-8502,37	543,00
-8481,78	354,00
-8461,23	244,00
-8440,71	404,00
-8420,24	368,00
-8399,81	501,00
-8379,42	404,00
-8359,08	392,00
-8338,77	321,00
-8318,50	264,00
-8298,27	303,00
-8278,09	440,00
-8257,94	348,00
-8237,83	477,00
-8217,76	413,00
-8197,74	422,00
-8177,75	518,00
-8157,80	312,00
-8137,89	344,00
-8118,02	339,00
-8098,19	489,00
-8078,40	394,00
-8058,65	426,00
-8038,93	416,00
-8019,26	453,00
-7999,62	492,00
-7980,02	444,00
-7960,46	403,00
-7940,94	389,00
-7921,46	433,00
-7902,01	339,00
-7882,60	585,00
-7863,23	405,00
-7843,90	416,00
-7824,61	558,00
-7805,35	566,00
-7786,13	483,00
-7766,95	432,00
-7747,80	616,00
-7728,69	571,00
-7709,62	508,00
-7690,59	463,00
-7671,59	542,00
-7652,63	434,00
-7633,70	470,00
-7614,81	527,00
-7595,96	391,00
-7577,15	511,00
-7558,37	462,00
-7539,62	493,00
-7520,91	456,00
-7502,24	428,00
-7483,60	329,00
-7465,00	468,00
-7446,44	576,00
-7427,91	391,00
-7409,41	453,00
-7390,95	422,00
-7372,53	309,00
-7354,14	495,00
-7335,78	347,00
-7317,46	464,00
-7299,18	370,00
-7280,92	351,00
-7262,71	508,00
-7244,52	328,00
-7226,38	263,00
-7208,26	365,00
-7190,18	339,00
-7172,14	347,00
-7154,12	326,00
-7136,15	333,00
-7118,20	447,00
-7100,29	532,00
-7082,41	423,00
-7064,57	319,00
-7046,76	417,00
-7028,98	301,00
-7011,24	428,00
-6993,53	299,00
-6975,85	351,00
-6958,20	397,00
-6940,59	394,00
-6923,01	238,00
-6905,46	477,00
-6887,94	315,00
-6870,46	533,00
-6853,01	319,00
-6835,59	453,00
-6818,21	234,00
-6800,85	433,00
-6783,53	325,00
-6766,24	381,00
-6748,98	417,00
-6731,76	244,00
-6714,56	343,00
-6697,40	280,00
-6680,26	328,00
-6663,16	303,00
-6646,09	363,00
-6629,05	284,00
-6612,05	400,00
-6595,07	154,00
-6578,13	334,00
-6561,21	267,00
-6544,33	449,00
-6527,47	268,00
-6510,65	366,00
-6493,86	206,00
-6477,10	289,00
-6460,36	460,00
-6443,66	282,00
-6426,99	308,00
-6410,35	330,00
-6393,74	420,00
-6377,16	273,00
-6360,61	298,00
-6344,09	156,00
-6327,59	255,00
-6311,13	403,00
-6294,70	298,00
-6278,29	371,00
-6261,92	296,00
-6245,58	329,00
-6229,26	287,00
-6212,97	376,00
-6196,72	258,00
-6180,49	402,00
-6164,29	330,00
-6148,12	461,00
-6131,98	423,00
-6115,86	419,00
-6099,78	384,00
-6083,72	366,00
-6067,69	371,00
-6051,69	440,00
-6035,72	443,00
-6019,78	381,00
-6003,87	504,00
-5987,98	293,00
-5972,12	360,00
-5956,29	295,00
-5940,49	169,00
-5924,71	578,00
-5908,96	493,00
-5893,24	469,00
-5877,55	436,00
-5861,89	458,00
-5846,25	276,00
-5830,64	375,00
-5815,05	402,00
-5799,50	363,00
-5783,97	504,00
-5768,47	382,00
-5752,99	515,00
-5737,55	332,00
-5722,12	384,00
-5706,73	354,00
-5691,36	366,00
-5676,02	378,00
-5660,71	488,00
-5645,42	421,00
-5630,16	451,00
-5614,92	556,00
-5599,71	382,00
-5584,53	368,00
-5569,37	285,00
-5554,24	1304,00
-5539,14	404,00
-5524,06	486,00
-5509,01	448,00
-5493,98	311,00
-5478,98	401,00
-5464,00	257,00
-5449,05	354,00
-5434,13	507,00
-5419,23	409,00
-5404,36	361,00
-5389,51	395,00
-5374,69	341,00
-5359,89	318,00
-5345,12	316,00
-5330,37	437,00
-5315,65	396,00
-5300,95	550,00
-5286,28	449,00
-5271,63	292,00
-5257,01	368,00
-5242,41	345,00
-5227,84	297,00
-5213,29	439,00
-5198,76	471,00
-5184,26	519,00
-5169,79	381,00
-5155,33	381,00
-5140,91	347,00
-5126,51	262,00
-5112,13	382,00
-5097,77	412,00
-5083,44	592,00
-5069,13	480,00
-5054,85	487,00
-5040,59	401,00
-5026,36	383,00
-5012,15	413,00
-4997,96	389,00
-4983,80	456,00
-4969,66	475,00
-4955,54	406,00
-4941,44	547,00
-4927,37	315,00
-4913,33	392,00
-4899,30	316,00
-4885,30	396,00
-4871,33	391,00
-4857,37	429,00
-4843,44	495,00
-4829,53	551,00
-4815,65	576,00
-4801,79	291,00
-4787,95	481,00
-4774,13	355,00
-4760,34	490,00
-4746,56	616,00
-4732,82	534,00
-4719,09	544,00
-4705,38	504,00
-4691,70	428,00
-4678,04	489,00
-4664,41	513,00
-4650,79	588,00
-4637,20	543,00
-4623,63	421,00
-4610,08	590,00
-4596,56	488,00
-4583,05	346,00
-4569,57	437,00
-4556,11	538,00
-4542,67	461,00
-4529,25	500,00
-4515,86	426,00
-4502,49	456,00
-4489,13	473,00
-4475,80	567,00
-4462,49	445,00
-4449,21	546,00
-4435,94	497,00
-4422,70	487,00
-4409,47	371,00
-4396,27	488,00
-4383,09	461,00
-4369,93	611,00
-4356,79	526,00
-4343,67	512,00
-4330,58	633,00
-4317,50	539,00
-4304,45	564,00
-4291,41	544,00
-4278,40	575,00
-4265,41	508,00
-4252,44	524,00
-4239,49	488,00
-4226,55	431,00
-4213,65	546,00
-4200,76	672,00
-4187,89	608,00
-4175,04	542,00
-4162,21	519,00
-4149,40	553,00
-4136,61	573,00
-4123,85	600,00
-4111,10	587,00
-4098,37	670,00
-4085,66	586,00
-4072,98	627,00
-4060,31	608,00
-4047,66	622,00
-4035,04	765,00
-4022,43	572,00
-4009,84	578,00
-3997,27	491,00
-3984,72	662,00
-3972,19	710,00
-3959,69	583,00
-3947,20	563,00
-3934,73	586,00
-3922,27	547,00
-3909,84	589,00
-3897,43	714,00
-3885,04	630,00
-3872,67	667,00
-3860,31	595,00
-3847,98	704,00
-3835,66	642,00
-3823,36	621,00
-3811,09	636,00
-3798,83	712,00
-3786,59	640,00
-3774,37	700,00
-3762,17	617,00
-3749,98	696,00
-3737,82	651,00
-3725,67	776,00
-3713,55	576,00
-3701,44	691,00
-3689,35	610,00
-3677,28	688,00
-3665,22	651,00
-3653,19	594,00
-3641,17	620,00
-3629,18	650,00
-3617,20	666,00
-3605,24	637,00
-3593,30	745,00
-3581,37	660,00
-3569,47	686,00
-3557,58	680,00
-3545,71	730,00
-3533,86	706,00
-3522,02	579,00
-3510,21	644,00
-3498,41	694,00
-3486,63	591,00
-3474,87	675,00
-3463,12	600,00
-3451,40	656,00
-3439,69	670,00
-3428,00	647,00
-3416,33	678,00
-3404,67	615,00
-3393,03	599,00
-3381,41	750,00
-3369,81	664,00
-3358,22	730,00
-3346,66	720,00
-3335,10	643,00
-3323,57	570,00
-3312,06	635,00
-3300,56	646,00
-3289,08	573,00
-3277,61	584,00
-3266,16	661,00
-3254,73	614,00
-3243,32	662,00
-3231,92	637,00
-3220,55	733,00
-3209,18	785,00
-3197,84	630,00
-3186,51	599,00
-3175,20	579,00
-3163,90	545,00
-3152,63	709,00
-3141,36	489,00
-3130,12	618,00
-3118,89	758,00
-3107,68	642,00
-3096,49	645,00
-3085,31	533,00
-3074,15	651,00
-3063,00	609,00
-3051,87	576,00
-3040,76	590,00
-3029,67	806,00
-3018,59	767,00
-3007,52	784,00
-2996,48	587,00
-2985,44	668,00
-2974,43	672,00
-2963,43	591,00
-2952,45	657,00
-2941,48	660,00
-2930,53	657,00
-2919,60	584,00
-2908,68	663,00
-2897,78	647,00
-2886,89	801,00
-2876,02	620,00
-2865,17	558,00
-2854,33	618,00
-2843,50	606,00
-2832,70	637,00
-2821,90	656,00
-2811,13	673,00
-2800,37	591,00
-2789,62	520,00
-2778,89	671,00
-2768,18	658,00
-2757,48	714,00
-2746,80	790,00
-2736,13	567,00
-2725,48	740,00
-2714,84	559,00
-2704,22	646,00
-2693,61	637,00
-2683,02	674,00
-2672,45	648,00
-2661,89	618,00
-2651,34	689,00
-2640,81	680,00
-2630,30	787,00
-2619,80	540,00
-2609,31	732,00
-2598,84	563,00
-2588,39	694,00
-2577,95	549,00
-2567,52	518,00
-2557,11	604,00
-2546,71	653,00
-2536,33	789,00
-2525,97	687,00
-2515,62	679,00
-2505,28	646,00
-2494,96	626,00
-2484,65	686,00
-2474,36	892,00
-2464,08	547,00
-2453,82	737,00
-2443,57	664,00
-2433,33	542,00
-2423,11	747,00
-2412,91	745,00
-2402,72	611,00
-2392,54	695,00
-2382,38	622,00
-2372,23	695,00
-2362,09	1545,00
-2351,97	533,00
-2341,87	589,00
-2331,78	739,00
-2321,70	687,00
-2311,64	618,00
-2301,59	689,00
-2291,55	582,00
-2281,53	703,00
-2271,53	563,00
-2261,53	662,00
-2251,55	679,00
-2241,59	761,00
-2231,64	605,00
-2221,70	604,00
-2211,78	658,00
-2201,87	661,00
-2191,97	657,00
-2182,09	655,00
-2172,22	751,00
-2162,37	621,00
-2152,53	578,00
-2142,70	590,00
-2132,89	548,00
-2123,09	663,00
-2113,30	691,00
-2103,53	615,00
-2093,77	667,00
-2084,02	662,00
-2074,29	732,00
-2064,57	660,00
-2054,86	670,00
-2045,17	731,00
-2035,49	648,00
-2025,82	567,00
-2016,17	628,00
-2006,53	576,00
-1996,91	756,00
-1987,29	600,00
-1977,69	633,00
-1968,11	620,00
-1958,53	617,00
-1948,97	581,00
-1939,42	653,00
-1929,89	616,00
-1920,37	598,00
-1910,86	596,00
-1901,36	636,00
-1891,88	653,00
-1882,41	646,00
-1872,95	694,00
-1863,51	648,00
-1854,08	617,00
-1844,66	699,00
-1835,26	760,00
-1825,86	666,00
-1816,48	624,00
-1807,11	687,00
-1797,76	685,00
-1788,42	658,00
-1779,09	622,00
-1769,77	657,00
-1760,47	737,00
-1751,17	623,00
-1741,89	576,00
-1732,63	607,00
-1723,37	823,00
-1714,13	784,00
-1704,90	582,00
-1695,68	708,00
-1686,48	603,00
-1677,29	630,00
-1668,11	762,00
-1658,94	646,00
-1649,78	624,00
-1640,64	665,00
-1631,51	579,00
-1622,39	795,00
-1613,28	627,00
-1604,19	597,00
-1595,10	733,00
-1586,03	640,00
-1576,97	773,00
-1567,93	613,00
-1558,89	748,00
-1549,87	702,00
-1540,86	615,00
-1531,86	624,00
-1522,87	655,00
-1513,90	634,00
-1504,93	686,00
-1495,98	713,00
-1487,04	745,00
-1478,12	604,00
-1469,20	657,00
-1460,30	690,00
-1451,40	787,00
-1442,52	683,00
-1433,65	735,00
-1424,80	603,00
-1415,95	626,00
-1407,12	751,00
-1398,30	601,00
-1389,48	695,00
-1380,69	576,00
-1371,90	572,00
-1363,12	708,00
-1354,36	674,00
-1345,60	599,00
-1336,86	607,00
-1328,13	698,00
-1319,41	644,00
-1310,70	627,00
-1302,01	631,00
-1293,32	604,00
-1284,65	612,00
-1275,99	689,00
-1267,33	836,00
-1258,69	684,00
-1250,06	622,00
-1241,45	562,00
-1232,84	880,00
-1224,25	645,00
-1215,66	677,00
-1207,09	656,00
-1198,53	679,00
-1189,97	639,00
-1181,43	611,00
-1172,91	628,00
-1164,39	734,00
-1155,88	606,00
-1147,38	524,00
-1138,90	638,00
-1130,43	591,00
-1121,96	726,00
-1113,51	610,00
-1105,07	680,00
-1096,64	702,00
-1088,22	700,00
-1079,81	763,00
-1071,41	718,00
-1063,02	640,00
-1054,65	717,00
-1046,28	675,00
-1037,92	671,00
-1029,58	669,00
-1021,24	635,00
-1012,92	913,00
-1004,61	687,00
-996,30	899,00
-988,01	563,00
-979,73	671,00
-971,46	694,00
-963,20	626,00
-954,95	525,00
-946,71	662,00
-938,48	677,00
-930,26	677,00
-922,06	699,00
-913,86	560,00
-905,67	658,00
-897,49	666,00
-889,33	527,00
-881,17	715,00
-873,02	724,00
-864,89	610,00
-856,76	603,00
-848,65	684,00
-840,54	711,00
-832,45	731,00
-824,36	599,00
-816,29	686,00
-808,22	711,00
-800,17	668,00
-792,12	673,00
-784,09	711,00
-776,06	558,00
-768,05	718,00
-760,04	665,00
-752,05	631,00
-744,07	665,00
-736,09	695,00
-728,13	604,00
-720,17	645,00
-712,23	695,00
-704,29	605,00
-696,37	599,00
-688,45	820,00
-680,55	657,00
-672,65	626,00
-664,77	625,00
-656,89	703,00
-649,03	616,00
-641,17	684,00
-633,32	677,00
-625,49	691,00
-617,66	581,00
-609,84	716,00
-602,03	648,00
-594,23	677,00
-586,45	779,00
-578,67	633,00
-570,90	693,00
-563,14	591,00
-555,39	655,00
-547,65	730,00
-539,91	652,00
-532,19	672,00
-524,48	670,00
-516,78	664,00
-509,08	787,00
-501,40	649,00
-493,72	689,00
-486,06	614,00
-478,40	765,00
-470,76	629,00
-463,12	644,00
-455,49	610,00
-447,87	609,00
-440,26	621,00
-432,66	559,00
-425,07	741,00
-417,49	794,00
-409,92	559,00
-402,35	568,00
-394,80	552,00
-387,25	662,00
-379,72	657,00
-372,19	747,00
-364,67	731,00
-357,17	638,00
-349,67	713,00
-342,18	609,00
-334,69	741,00
-327,22	724,00
-319,76	772,00
-312,30	690,00
-304,86	560,00
-297,42	684,00
-290,00	650,00
-282,58	646,00
-275,17	692,00
-267,77	781,00
-260,37	779,00
-252,99	769,00
-245,62	777,00
-238,25	783,00
-230,90	745,00
-223,55	869,00
-216,21	725,00
-208,88	980,00
-201,56	781,00
-194,25	903,00
-186,94	906,00
-179,65	998,00
-172,36	1001,00
-165,08	993,00
-157,81	1089,00
-150,55	1148,00
-143,30	1165,00
-136,06	1200,00
-128,82	1190,00
-121,60	1309,00
-114,38	1401,00
-107,17	1509,00
-99,97	1667,00
-92,78	1734,00
-85,60	1918,00
-78,42	2216,00
-71,25	2380,00
-64,10	2555,00
-56,95	3020,00
-49,81	3346,00
-42,67	4182,00
-35,55	4913,00
-28,43	6444,00
-21,33	10414,00
-14,23	32463,00
-7,14	57498,00
-0,05	57284,00
7,02	57012,00
14,09	57319,00
21,14	28175,00
28,19	12237,00
35,23	7956,00
42,27	6276,00
49,29	5134,00
56,31	4460,00
63,32	4040,00
70,32	3328,00
77,31	2962,00
84,29	2604,00
91,27	2453,00
98,23	2458,00
105,19	2343,00
112,14	2741,00
119,09	4528,00
126,02	7197,00
132,95	8741,00
139,87	9211,00
146,78	9377,00
153,68	9282,00
160,58	9142,00
167,46	9059,00
174,34	9286,00
181,21	9068,00
188,08	9089,00
194,93	9142,00
201,78	9100,00
208,62	9191,00
215,45	9263,00
222,27	9250,00
229,09	9285,00
235,90	9242,00
242,70	9144,00
249,49	9206,00
256,27	9044,00
263,05	9066,00
269,82	9013,00
276,58	9075,00
283,33	9104,00
290,08	8939,00
296,82	8935,00
303,55	8750,00
310,27	8773,00
316,98	8712,00
323,69	8709,00
330,39	8608,00
337,08	8666,00
343,76	8699,00
350,44	8786,00
357,11	8669,00
363,77	8663,00
370,42	8531,00
377,07	8577,00
383,71	8647,00
390,34	8599,00
396,96	8654,00
403,58	8653,00
410,19	8764,00
416,79	8869,00
423,38	8766,00
429,97	8619,00
436,55	8362,00
443,12	8360,00
449,68	8351,00
456,24	8337,00
462,79	8368,00
469,33	8373,00
475,86	8220,00
482,39	8224,00
488,91	8342,00
495,42	8235,00
501,93	8293,00
508,42	8016,00
514,91	8026,00
521,40	8057,00
527,87	7976,00
534,34	7851,00
540,80	7840,00
547,25	7864,00
553,70	8006,00
560,14	7833,00
566,57	7947,00
573,00	7893,00
579,41	7878,00
585,83	7928,00
592,23	7822,00
598,62	7834,00
605,01	7886,00
611,40	7804,00
617,77	7913,00
624,14	7650,00
630,50	7660,00
636,85	7676,00
643,20	7567,00
649,54	7603,00
655,87	7502,00
662,20	7554,00
668,52	7457,00
674,83	7502,00
681,13	7367,00
687,43	7543,00
693,72	7410,00
700,00	7334,00
706,28	7346,00
712,55	7365,00
718,81	7423,00
725,07	7330,00
731,32	7288,00
737,56	7356,00
743,79	7301,00
750,02	7343,00
756,24	7300,00
762,46	7206,00
768,67	7508,00
774,87	7293,00
781,06	7225,00
787,25	7400,00
793,43	7264,00
799,60	7299,00
805,77	7330,00
811,93	7302,00
818,08	7250,00
824,23	7239,00
830,37	7356,00
836,50	7200,00
842,63	7199,00
848,75	7075,00
854,87	7123,00
860,97	7159,00
867,07	7102,00
873,17	7078,00
879,25	7146,00
885,33	6961,00
891,41	7081,00
897,47	7072,00
903,53	6992,00
909,59	6990,00
915,63	6978,00
921,67	6898,00
927,71	6868,00
933,74	6846,00
939,76	6663,00
945,77	6749,00
951,78	6899,00
957,78	6761,00
963,78	6749,00
969,77	6809,00
975,75	6816,00
981,72	6655,00
987,69	7533,00
993,66	6787,00
999,61	6830,00
1005,56	6766,00
1011,51	6766,00
1017,44	6793,00
1023,37	6749,00
1029,30	6835,00
1035,22	6831,00
1041,13	6781,00
1047,03	6937,00
1052,93	6989,00
1058,83	7384,00
1064,71	7640,00
1070,59	7354,00
1076,47	7107,00
1082,33	7083,00
1088,20	6902,00
1094,05	6766,00
1099,90	6621,00
1105,74	6535,00
1111,58	6724,00
1117,41	6746,00
1123,23	7159,00
1129,05	7483,00
1134,86	7223,00
1140,67	7010,00
1146,47	6622,00
1152,26	6631,00
1158,05	6716,00
1163,83	6625,00
1169,60	6551,00
1175,37	6619,00
1181,13	6574,00
1186,89	6470,00
1192,64	6464,00
1198,38	6734,00
1204,12	6441,00
1209,85	6437,00
1215,58	6531,00
1221,30	6546,00
1227,02	6575,00
1232,72	6411,00
1238,43	6472,00
1244,12	6524,00
1249,81	6504,00
1255,50	6647,00
1261,17	6462,00
1266,85	6544,00
1272,51	6622,00
1278,17	6718,00
1283,83	6771,00
1289,47	7224,00
1295,12	7744,00
1300,75	7722,00
1306,38	7162,00
1312,01	6892,00
1317,63	6616,00
1323,24	6722,00
1328,85	6509,00
1334,45	6487,00
1340,04	6498,00
1345,63	6545,00
1351,22	6557,00
1356,80	6676,00
1362,37	6642,00
1367,93	6608,00
1373,49	6671,00
1379,05	6600,00
1384,60	6443,00
1390,14	6616,00
1395,68	6554,00
1401,21	6550,00
1406,74	6451,00
1412,26	6839,00
1417,77	7088,00
1423,28	6920,00
1428,78	7318,00
1434,28	7683,00
1439,77	7821,00
1445,26	7931,00
1450,74	7743,00
1456,22	7580,00
1461,68	7380,00
1467,15	7370,00
1472,61	6942,00
1478,06	6778,00
1483,51	6522,00
1488,95	6314,00
1494,38	6449,00
1499,81	6143,00
1505,24	6191,00
1510,65	6192,00
1516,07	6114,00
1521,48	6174,00
1526,88	5971,00
1532,27	6072,00
1537,67	5905,00
1543,05	6076,00
1548,43	5942,00
1553,81	5978,00
1559,18	5813,00
1564,54	5763,00
1569,90	5816,00
1575,25	5786,00
1580,60	5717,00
1585,94	5824,00
1591,28	5747,00
1596,61	5677,00
1601,93	5716,00
1607,25	5737,00
1612,57	5643,00
1617,88	5718,00
1623,18	5714,00
1628,48	5634,00
1633,77	5623,00
1639,06	5503,00
1644,34	5597,00
1649,62	5373,00
1654,89	5406,00
1660,16	5414,00
1665,42	5506,00
1670,67	5403,00
1675,92	5223,00
1681,17	5447,00
1686,41	5339,00
1691,64	5388,00
1696,87	5330,00
1702,10	5346,00
1707,32	5256,00
1712,53	5221,00
1717,74	5121,00
1722,94	5305,00
1728,14	5160,00
1733,33	5022,00
1738,52	5035,00
1743,70	5167,00
1748,88	5091,00
1754,05	5024,00
1759,22	4927,00
1764,38	4085,00
1769,53	5001,00
1774,69	4962,00
1779,83	4952,00
1784,97	4759,00
1790,11	4897,00
1795,24	4828,00
1800,36	4751,00
1805,48	4704,00
1810,60	4792,00
1815,71	4736,00
1820,82	4684,00
1825,92	4732,00
1831,01	4692,00
1836,10	4716,00
1841,19	4788,00
1846,26	4608,00
1851,34	4754,00
1856,41	4593,00
1861,47	4657,00
1866,53	4729,00
1871,59	4673,00
1876,64	4537,00
1881,68	4498,00
1886,72	4568,00
1891,76	4500,00
1896,79	4442,00
1901,81	4470,00
1906,83	4374,00
1911,85	4235,00
1916,86	4347,00
1921,86	4128,00
1926,86	4138,00
1931,86	4280,00
1936,85	4194,00
1941,83	4095,00
1946,81	4032,00
1951,79	4019,00
1956,76	3977,00
1961,72	3853,00
1966,68	4093,00
1971,64	3930,00
1976,59	3965,00
1981,54	3945,00
1986,48	4058,00
1991,42	3813,00
1996,35	4056,00
2001,27	3900,00
2006,20	3950,00
2011,11	3872,00
2016,03	3866,00
2020,93	3813,00
2025,84	3855,00
2030,73	3826,00
2035,63	3716,00
2040,52	3843,00
2045,40	3761,00
2050,28	3746,00
2055,15	3771,00
2060,02	3637,00
2064,89	3743,00
2069,75	3682,00
2074,60	3704,00
2079,46	3563,00
2084,30	3622,00
2089,14	3660,00
2093,98	3684,00
2098,81	3746,00
2103,64	3735,00
2108,46	3656,00
2113,28	3655,00
2118,09	3560,00
2122,90	3704,00
2127,70	3422,00
2132,50	3558,00
2137,30	3552,00
2142,09	3408,00
2146,87	3438,00
2151,66	3601,00
2156,43	3552,00
2161,20	3489,00
2165,97	3524,00
2170,73	3423,00
2175,49	3394,00
2180,24	3337,00
2184,99	3619,00
2189,74	3496,00
2194,48	3522,00
2199,21	3442,00
2203,94	3319,00
2208,67	3231,00
2213,39	3169,00
2218,11	3313,00
2222,82	3269,00
2227,53	3188,00
2232,23	3173,00
2236,93	3203,00
2241,63	3165,00
2246,32	3161,00
2251,00	3080,00
2255,68	3156,00
2260,36	3090,00
2265,03	3126,00
2269,70	3228,00
2274,36	3026,00
2279,02	3163,00
2283,68	3063,00
2288,33	3007,00
2292,97	3051,00
2297,61	3029,00
2302,25	3075,00
2306,88	2897,00
2311,51	2955,00
2316,14	2901,00
2320,75	2940,00
2325,37	2875,00
2329,98	2830,00
2334,59	2905,00
2339,19	2894,00
2343,79	2757,00
2348,38	2794,00
2352,97	2722,00
2357,55	2836,00
2362,13	2796,00
2366,71	2663,00
2371,28	2867,00
2375,85	2675,00
2380,41	2784,00
2384,97	2657,00
2389,52	2674,00
2394,07	2656,00
2398,62	2677,00
2403,16	2692,00
2407,70	2456,00
2412,23	2569,00
2416,76	2631,00
2421,29	2646,00
2425,81	2690,00
2430,32	2654,00
2434,84	2517,00
2439,34	2496,00
2443,85	2624,00
2448,35	2508,00
2452,84	2422,00
2457,33	2559,00
2461,82	2350,00
2466,30	2337,00
2470,78	2448,00
2475,25	2408,00
2479,72	2373,00
2484,19	2456,00
2488,65	2378,00
2493,11	2371,00
2497,56	2412,00
2502,01	2242,00
2506,46	2422,00
2510,90	2198,00
2515,34	2261,00
2519,77	2380,00
2524,20	2303,00
2528,62	2304,00
2533,04	2355,00
2537,46	2243,00
2541,87	2251,00
2546,28	2242,00
2550,68	2399,00
2555,08	2219,00
2559,48	2108,00
2563,87	1997,00
2568,26	2081,00
2572,64	2139,00
2577,02	2169,00
2581,40	2000,00
2585,77	2144,00
2590,14	2036,00
2594,50	2064,00
2598,86	2133,00
2603,22	2049,00
2607,57	2017,00
2611,92	2051,00
2616,26	2170,00
2620,60	2072,00
2624,94	1998,00
2629,27	1984,00
2633,60	1902,00
2637,92	2130,00
2642,24	2017,00
2646,56	1948,00
2650,87	1900,00
2655,18	2041,00
2659,48	1842,00
2663,78	1906,00
2668,08	1905,00
2672,37	1832,00
2676,66	1954,00
2680,95	1952,00
2685,23	2085,00
2689,50	1910,00
2693,78	1918,00
2698,05	1931,00
2702,31	2003,00
2706,57	2115,00
2710,83	2110,00
2715,08	2089,00
2719,33	2172,00
2723,58	2138,00
2727,82	2086,00
2732,06	2026,00
2736,29	1942,00
2740,53	1994,00
2744,75	1947,00
2748,97	1952,00
2753,19	1905,00
2757,41	1920,00
2761,62	1958,00
2765,83	1853,00
2770,03	1745,00
2774,23	1929,00
2778,43	1943,00
2782,62	1908,00
2786,81	1943,00
2791,00	1862,00
2795,18	1985,00
2799,35	2020,00
2803,53	1933,00
2807,70	2014,00
2811,86	1944,00
2816,03	2005,00
2820,19	2087,00
2824,34	2066,00
2828,49	2129,00
2832,64	2351,00
2836,78	2515,00
2840,92	2757,00
2845,06	3168,00
2849,19	3428,00
2853,32	3566,00
2857,45	3495,00
2861,57	3455,00
2865,69	3461,00
2869,80	3260,00
2873,91	3301,00
2878,02	3462,00
2882,12	3720,00
2886,22	3663,00
2890,32	3525,00
2894,41	3447,00
2898,50	3236,00
2902,58	3162,00
2906,67	3059,00
2910,74	2884,00
2914,82	2734,00
2918,89	2665,00
2922,96	2440,00
2927,02	2379,00
2931,08	2375,00
2935,13	2274,00
2939,19	2277,00
2943,24	2155,00
2947,28	2138,00
2951,32	1951,00
2955,36	1794,00
2959,40	1895,00
2963,43	1733,00
2967,46	1665,00
2971,48	1682,00
2975,50	1589,00
2979,52	1646,00
2983,53	1526,00
2987,54	1541,00
2991,55	1565,00
2995,55	1488,00
2999,55	1423,00
3003,54	1328,00
3007,54	1443,00
3011,53	1393,00
3015,51	1248,00
3019,49	1334,00
3023,47	1174,00
3027,45	1325,00
3031,42	1260,00
3035,39	1261,00
3039,35	1303,00
3043,31	1285,00
3047,27	1199,00
3051,22	1279,00
3055,17	1209,00
3059,12	1281,00
3063,06	1238,00
3067,00	1137,00
3070,94	1101,00
3074,87	1303,00
3078,80	1243,00
3082,73	1159,00
3086,65	1169,00
3090,57	1184,00
3094,49	1159,00
3098,40	1113,00
3102,31	1065,00
3106,22	1109,00
3110,12	1089,00
3114,02	1031,00
3117,92	1157,00
3121,81	1105,00
3125,70	1045,00
3129,58	1085,00
3133,47	1011,00
3137,34	1073,00
3141,22	1155,00
3145,09	1107,00
3148,96	1062,00
3152,83	1089,00
3156,69	1118,00
3160,55	1018,00
3164,40	1073,00
3168,26	1054,00
3172,10	1068,00
3175,95	1109,00
3179,79	1084,00
3183,63	1006,00
3187,47	988,00
3191,30	1106,00
3195,13	952,00
3198,95	916,00
3202,78	948,00
3206,60	926,00
3210,41	899,00
3214,23	988,00
3218,03	1020,00
3221,84	960,00
3225,64	933,00
3229,44	904,00
3233,24	952,00
3237,03	915,00
3240,82	882,00
3244,61	859,00
3248,39	921,00
3252,17	986,00
3255,95	1040,00
3259,72	976,00
3263,49	1097,00
3267,26	824,00
3271,03	933,00
3274,79	874,00
3278,54	981,00
3282,30	921,00
3286,05	969,00
3289,80	981,00
3293,54	861,00
3297,29	974,00
3301,02	852,00
3304,76	904,00
3308,49	918,00
3312,22	789,00
3315,95	849,00
3319,67	743,00
3323,39	969,00
3327,10	965,00
3330,82	884,00
3334,53	911,00
3338,24	883,00
3341,94	783,00
3345,64	859,00
3349,34	827,00
3353,03	948,00
3356,72	863,00
3360,41	915,00
3364,10	819,00
3367,78	905,00
3371,46	771,00
3375,13	843,00
3378,81	917,00
3382,48	737,00
3386,14	872,00
3389,81	850,00
3393,47	866,00
3397,12	921,00
3400,78	830,00
3404,43	833,00
3408,08	830,00
3411,72	695,00
3415,36	753,00
3419,00	771,00
3422,64	785,00
3426,27	768,00
3429,90	798,00
3433,53	753,00
3437,15	759,00
3440,77	668,00
3444,39	725,00
3448,00	737,00
3451,62	769,00
3455,22	835,00
3458,83	627,00
3462,43	752,00
3466,03	885,00
3469,63	650,00
3473,22	685,00
3476,81	665,00
3480,40	854,00
3483,99	716,00
3487,57	760,00
3491,15	735,00
3494,72	779,00
3498,29	781,00
3501,86	627,00
3505,43	754,00
3508,99	652,00
3512,56	566,00
3516,11	737,00
3519,67	744,00
3523,22	763,00
3526,77	661,00
3530,32	844,00
3533,86	715,00
3537,40	788,00
3540,94	739,00
3544,47	658,00
3548,00	640,00
3551,53	802,00
3555,06	706,00
3558,58	686,00
3562,10	715,00
3565,62	635,00
3569,13	627,00
3572,64	805,00
3576,15	616,00
3579,66	654,00
3583,16	709,00
3586,66	718,00
3590,16	705,00
3593,65	660,00
3597,14	590,00
3600,63	585,00
3604,11	674,00
3607,60	648,00
3611,08	643,00
3614,55	620,00
3618,03	659,00
3621,50	617,00
3624,97	580,00
3628,43	572,00
3631,90	519,00
3635,36	567,00
3638,81	549,00
3642,27	619,00
3645,72	609,00
3649,17	622,00
3652,61	595,00
3656,06	605,00
3659,50	619,00
3662,93	618,00
3666,37	591,00
3669,80	768,00
3673,23	646,00
3676,65	669,00
3680,08	718,00
3683,50	599,00
3686,92	585,00
3690,33	606,00
3693,74	610,00
3697,15	605,00
3700,56	652,00
3703,96	657,00
3707,36	450,00
3710,76	558,00
3714,16	514,00
3717,55	609,00
3720,94	530,00
3724,33	610,00
3727,71	689,00
3731,10	628,00
3734,48	656,00
3737,85	458,00
3741,23	537,00
3744,60	595,00
3747,97	396,00
3751,33	680,00
3754,69	537,00
3758,05	552,00
3761,41	484,00
3764,77	567,00
3768,12	506,00
3771,47	509,00
3774,82	532,00
3778,16	-7,00
3781,50	11,00
3784,84	4,00
3788,18	10,00
>>>>>End Processed Spectral Data<<<<<
