SpectraSuite Data File
++++++++++++++++++++++++++++++++++++
Date: Mon Jan 05 16:25:58 ICT 2026
User: Administrator
Dark Spectrum Present: Yes
Reference Spectrum Present: No
Number of Sampled Component Spectra: 1
Spectrometers: MAYP113682
Integration Time (usec): 3000000 (MAYP113682)
Spectra Averaged: 1 (MAYP113682)
Boxcar Smoothing: 0 (MAYP113682)
Correct for Electrical Dark: No (MAYP113682)
Strobe/Lamp Enabled: No (MAYP113682)
Correct for Detector Non-linearity: No (MAYP113682)
Correct for Stray Light: No (MAYP113682)
Number of Pixels in Processed Spectrum: 2068
>>>>>Begin Processed Spectral Data<<<<<
-37534,58	20,00
-37414,56	4,00
-37295,11	3,00
-37176,24	2,00
-37057,95	301,00
-36940,22	297,00
-36823,05	380,00
-36706,45	399,00
-36590,40	373,00
-36474,90	388,00
-36359,95	390,00
-36245,55	469,00
-36131,68	379,00
-36018,35	356,00
-35905,55	379,00
-35793,29	440,00
-35681,54	345,00
-35570,32	410,00
-35459,62	412,00
-35349,43	483,00
-35239,75	494,00
-35130,58	394,00
-35021,91	477,00
-34913,74	449,00
-34806,07	427,00
-34698,89	493,00
-34592,20	424,00
-34486,00	427,00
-34380,28	543,00
-34275,04	387,00
-34170,27	406,00
-34065,98	494,00
-33962,16	484,00
-33858,81	522,00
-33755,92	412,00
-33653,49	574,00
-33551,52	466,00
-33450,01	457,00
-33348,94	427,00
-33248,33	451,00
-33148,16	434,00
-33048,43	509,00
-32949,14	602,00
-32850,29	569,00
-32751,87	378,00
-32653,89	504,00
-32556,33	451,00
-32459,20	422,00
-32362,49	483,00
-32266,19	471,00
-32170,32	393,00
-32074,86	440,00
-31979,82	494,00
-31885,18	542,00
-31790,95	497,00
-31697,12	538,00
-31603,69	468,00
-31510,67	527,00
-31418,04	541,00
-31325,80	422,00
-31233,95	394,00
-31142,49	421,00
-31051,42	451,00
-30960,73	485,00
-30870,43	535,00
-30780,50	530,00
-30690,95	553,00
-30601,77	563,00
-30512,97	457,00
-30424,53	488,00
-30336,46	475,00
-30248,76	501,00
-30161,42	544,00
-30074,44	404,00
-29987,81	459,00
-29901,55	543,00
-29815,63	382,00
-29730,07	513,00
-29644,86	538,00
-29560,00	461,00
-29475,48	466,00
-29391,30	483,00
-29307,47	485,00
-29223,97	487,00
-29140,81	536,00
-29057,99	603,00
-28975,50	414,00
-28893,34	545,00
-28811,51	459,00
-28730,00	572,00
-28648,82	423,00
-28567,97	418,00
-28487,43	462,00
-28407,21	456,00
-28327,32	434,00
-28247,73	622,00
-28168,46	494,00
-28089,50	463,00
-28010,85	410,00
-27932,51	365,00
-27854,48	562,00
-27776,75	356,00
-27699,32	456,00
-27622,19	383,00
-27545,37	551,00
-27468,84	449,00
-27392,60	502,00
-27316,66	490,00
-27241,01	453,00
-27165,66	452,00
-27090,59	384,00
-27015,81	544,00
-26941,31	565,00
-26867,10	440,00
-26793,17	557,00
-26719,52	457,00
-26646,15	393,00
-26573,06	468,00
-26500,24	373,00
-26427,70	511,00
-26355,43	344,00
-26283,43	499,00
-26211,71	469,00
-26140,25	453,00
-26069,06	453,00
-25998,13	428,00
-25927,46	418,00
-25857,06	391,00
-25786,92	446,00
-25717,04	436,00
-25647,42	474,00
-25578,05	419,00
-25508,94	358,00
-25440,09	535,00
-25371,48	551,00
-25303,13	494,00
-25235,02	421,00
-25167,17	460,00
-25099,56	436,00
-25032,19	448,00
-24965,07	407,00
-24898,20	399,00
-24831,56	362,00
-24765,17	501,00
-24699,01	393,00
-24633,10	520,00
-24567,41	508,00
-24501,97	387,00
-24436,75	372,00
-24371,77	424,00
-24307,03	411,00
-24242,51	503,00
-24178,22	414,00
-24114,16	424,00
-24050,32	457,00
-23986,71	378,00
-23923,32	534,00
-23860,16	515,00
-23797,22	491,00
-23734,50	477,00
-23672,00	379,00
-23609,71	441,00
-23547,65	461,00
-23485,80	546,00
-23424,16	315,00
-23362,74	473,00
-23301,53	465,00
-23240,54	348,00
-23179,75	404,00
-23119,17	431,00
-23058,80	459,00
-22998,64	512,00
-22938,68	459,00
-22878,93	502,00
-22819,39	305,00
-22760,04	469,00
-22700,90	437,00
-22641,96	456,00
-22583,22	465,00
-22524,68	490,00
-22466,33	354,00
-22408,19	531,00
-22350,23	430,00
-22292,48	466,00
-22234,92	503,00
-22177,55	458,00
-22120,37	545,00
-22063,38	450,00
-22006,58	462,00
-21949,98	424,00
-21893,56	339,00
-21837,33	510,00
-21781,28	474,00
-21725,42	478,00
-21669,74	519,00
-21614,25	442,00
-21558,94	517,00
-21503,81	552,00
-21448,86	599,00
-21394,10	486,00
-21339,51	399,00
-21285,10	412,00
-21230,86	432,00
-21176,81	445,00
-21122,93	415,00
-21069,22	313,00
-21015,69	445,00
-20962,33	526,00
-20909,14	389,00
-20856,13	398,00
-20803,28	502,00
-20750,61	493,00
-20698,10	341,00
-20645,76	333,00
-20593,59	462,00
-20541,59	455,00
-20489,75	513,00
-20438,07	391,00
-20386,56	424,00
-20335,22	412,00
-20284,03	454,00
-20233,01	339,00
-20182,15	325,00
-20131,45	410,00
-20080,91	370,00
-20030,52	540,00
-19980,30	507,00
-19930,23	373,00
-19880,32	538,00
-19830,56	457,00
-19780,96	418,00
-19731,52	381,00
-19682,23	501,00
-19633,09	408,00
-19584,10	378,00
-19535,26	447,00
-19486,58	579,00
-19438,04	402,00
-19389,66	591,00
-19341,42	433,00
-19293,33	422,00
-19245,39	466,00
-19197,60	534,00
-19149,95	478,00
-19102,45	474,00
-19055,09	390,00
-19007,87	403,00
-18960,80	508,00
-18913,87	454,00
-18867,09	462,00
-18820,44	542,00
-18773,94	512,00
-18727,57	495,00
-18681,35	288,00
-18635,26	439,00
-18589,31	402,00
-18543,50	436,00
-18497,83	449,00
-18452,29	438,00
-18406,89	370,00
-18361,63	535,00
-18316,50	498,00
-18271,50	435,00
-18226,63	503,00
-18181,90	509,00
-18137,30	538,00
-18092,84	475,00
-18048,50	503,00
-18004,29	423,00
-17960,22	355,00
-17916,27	470,00
-17872,45	501,00
-17828,76	622,00
-17785,20	449,00
-17741,77	426,00
-17698,46	527,00
-17655,28	415,00
-17612,22	432,00
-17569,29	410,00
-17526,48	515,00
-17483,79	545,00
-17441,23	389,00
-17398,79	487,00
-17356,48	378,00
-17314,28	540,00
-17272,21	472,00
-17230,26	457,00
-17188,42	497,00
-17146,71	479,00
-17105,12	477,00
-17063,64	424,00
-17022,28	422,00
-16981,04	364,00
-16939,92	464,00
-16898,91	555,00
-16858,02	386,00
-16817,25	343,00
-16776,59	434,00
-16736,04	447,00
-16695,61	434,00
-16655,29	346,00
-16615,09	401,00
-16574,99	524,00
-16535,01	501,00
-16495,15	483,00
-16455,39	476,00
-16415,74	400,00
-16376,21	374,00
-16336,78	434,00
-16297,46	408,00
-16258,26	460,00
-16219,16	455,00
-16180,17	448,00
-16141,28	431,00
-16102,51	471,00
-16063,84	379,00
-16025,27	450,00
-15986,82	418,00
-15948,46	452,00
-15910,22	473,00
-15872,07	502,00
-15834,04	434,00
-15796,10	432,00
-15758,27	614,00
-15720,54	477,00
-15682,91	493,00
-15645,39	539,00
-15607,97	484,00
-15570,64	502,00
-15533,42	413,00
-15496,30	440,00
-15459,28	481,00
-15422,36	486,00
-15385,54	496,00
-15348,82	441,00
-15312,19	518,00
-15275,66	382,00
-15239,23	557,00
-15202,90	414,00
-15166,67	477,00
-15130,53	518,00
-15094,48	463,00
-15058,54	345,00
-15022,68	445,00
-14986,93	378,00
-14951,26	488,00
-14915,69	473,00
-14880,22	448,00
-14844,84	475,00
-14809,55	456,00
-14774,35	472,00
-14739,25	491,00
-14704,24	467,00
-14669,32	475,00
-14634,49	490,00
-14599,75	465,00
-14565,10	426,00
-14530,55	447,00
-14496,08	454,00
-14461,70	505,00
-14427,41	451,00
-14393,21	382,00
-14359,10	378,00
-14325,07	455,00
-14291,14	415,00
-14257,29	411,00
-14223,52	496,00
-14189,85	525,00
-14156,26	458,00
-14122,76	369,00
-14089,34	400,00
-14056,01	486,00
-14022,76	350,00
-13989,60	528,00
-13956,52	450,00
-13923,53	416,00
-13890,62	461,00
-13857,79	396,00
-13825,05	368,00
-13792,39	408,00
-13759,81	395,00
-13727,31	442,00
-13694,90	500,00
-13662,57	531,00
-13630,31	474,00
-13598,14	507,00
-13566,05	382,00
-13534,05	402,00
-13502,12	493,00
-13470,27	447,00
-13438,50	458,00
-13406,80	360,00
-13375,19	450,00
-13343,66	524,00
-13312,20	524,00
-13280,83	343,00
-13249,53	507,00
-13218,30	355,00
-13187,16	432,00
-13156,09	634,00
-13125,10	428,00
-13094,18	500,00
-13063,34	467,00
-13032,58	399,00
-13001,89	554,00
-12971,28	521,00
-12940,74	464,00
-12910,27	517,00
-12879,88	433,00
-12849,57	442,00
-12819,33	539,00
-12789,16	539,00
-12759,06	461,00
-12729,04	337,00
-12699,09	335,00
-12669,21	418,00
-12639,41	431,00
-12609,68	454,00
-12580,02	464,00
-12550,43	505,00
-12520,91	420,00
-12491,46	504,00
-12462,08	347,00
-12432,77	444,00
-12403,54	366,00
-12374,37	340,00
-12345,27	385,00
-12316,24	385,00
-12287,29	424,00
-12258,40	402,00
-12229,57	434,00
-12200,82	366,00
-12172,14	429,00
-12143,52	357,00
-12114,97	421,00
-12086,49	469,00
-12058,07	503,00
-12029,73	446,00
-12001,44	474,00
-11973,23	551,00
-11945,08	402,00
-11917,00	445,00
-11888,98	404,00
-11861,03	603,00
-11833,15	448,00
-11805,32	405,00
-11777,57	457,00
-11749,88	481,00
-11722,25	322,00
-11694,69	463,00
-11667,19	434,00
-11639,75	448,00
-11612,38	416,00
-11585,07	472,00
-11557,83	420,00
-11530,65	517,00
-11503,53	403,00
-11476,47	446,00
-11449,48	423,00
-11422,54	566,00
-11395,67	451,00
-11368,86	486,00
-11342,11	444,00
-11315,43	360,00
-11288,80	447,00
-11262,23	435,00
-11235,73	424,00
-11209,28	565,00
-11182,90	422,00
-11156,57	385,00
-11130,31	578,00
-11104,10	472,00
-11077,96	478,00
-11051,87	348,00
-11025,84	438,00
-10999,87	427,00
-10973,96	413,00
-10948,11	476,00
-10922,31	546,00
-10896,58	454,00
-10870,90	484,00
-10845,28	501,00
-10819,71	375,00
-10794,20	533,00
-10768,75	466,00
-10743,36	483,00
-10718,02	394,00
-10692,74	435,00
-10667,52	495,00
-10642,35	453,00
-10617,24	527,00
-10592,18	482,00
-10567,18	452,00
-10542,23	536,00
-10517,34	460,00
-10492,51	566,00
-10467,72	463,00
-10443,00	462,00
-10418,32	591,00
-10393,70	496,00
-10369,14	492,00
-10344,63	438,00
-10320,17	612,00
-10295,77	509,00
-10271,42	494,00
-10247,12	535,00
-10222,88	669,00
-10198,68	541,00
-10174,54	576,00
-10150,46	630,00
-10126,42	603,00
-10102,44	517,00
-10078,51	505,00
-10054,63	628,00
-10030,80	590,00
-10007,03	647,00
-9983,30	616,00
-9959,63	679,00
-9936,01	680,00
-9912,44	687,00
-9888,92	611,00
-9865,44	590,00
-9842,02	609,00
-9818,65	747,00
-9795,33	657,00
-9772,06	677,00
-9748,84	582,00
-9725,67	700,00
-9702,55	831,00
-9679,47	795,00
-9656,45	819,00
-9633,47	795,00
-9610,55	865,00
-9587,67	989,00
-9564,84	1110,00
-9542,06	1026,00
-9519,32	1145,00
-9496,64	1259,00
-9474,00	1227,00
-9451,41	1341,00
-9428,87	1345,00
-9406,37	1385,00
-9383,92	1287,00
-9361,52	1294,00
-9339,17	1330,00
-9316,86	1502,00
-9294,60	1689,00
-9272,38	1637,00
-9250,21	1899,00
-9228,09	1997,00
-9206,01	2109,00
-9183,98	1851,00
-9162,00	1788,00
-9140,06	1774,00
-9118,16	1803,00
-9096,31	1768,00
-9074,51	1768,00
-9052,75	1884,00
-9031,04	1948,00
-9009,37	1756,00
-8987,74	1718,00
-8966,16	1618,00
-8944,63	1496,00
-8923,14	1549,00
-8901,69	1376,00
-8880,29	1348,00
-8858,93	1480,00
-8837,61	1701,00
-8816,34	1656,00
-8795,11	1742,00
-8773,92	1478,00
-8752,78	1650,00
-8731,68	1433,00
-8710,62	1579,00
-8689,61	1351,00
-8668,63	1600,00
-8647,70	1552,00
-8626,82	1660,00
-8605,97	1668,00
-8585,17	1552,00
-8564,41	1484,00
-8543,69	1376,00
-8523,01	1271,00
-8502,37	1445,00
-8481,78	1343,00
-8461,23	1293,00
-8440,71	1468,00
-8420,24	1537,00
-8399,81	1655,00
-8379,42	1561,00
-8359,08	1558,00
-8338,77	1488,00
-8318,50	1248,00
-8298,27	1204,00
-8278,09	1359,00
-8257,94	1411,00
-8237,83	1521,00
-8217,76	1505,00
-8197,74	1485,00
-8177,75	1486,00
-8157,80	1322,00
-8137,89	1244,00
-8118,02	1208,00
-8098,19	1244,00
-8078,40	1246,00
-8058,65	1244,00
-8038,93	1308,00
-8019,26	1201,00
-7999,62	1350,00
-7980,02	1169,00
-7960,46	1256,00
-7940,94	1177,00
-7921,46	1083,00
-7902,01	1102,00
-7882,60	1180,00
-7863,23	1132,00
-7843,90	1082,00
-7824,61	1145,00
-7805,35	1370,00
-7786,13	1119,00
-7766,95	1232,00
-7747,80	1200,00
-7728,69	1217,00
-7709,62	1177,00
-7690,59	1058,00
-7671,59	1193,00
-7652,63	1190,00
-7633,70	1196,00
-7614,81	1191,00
-7595,96	1217,00
-7577,15	1045,00
-7558,37	1035,00
-7539,62	1129,00
-7520,91	1089,00
-7502,24	1147,00
-7483,60	1270,00
-7465,00	1068,00
-7446,44	1079,00
-7427,91	951,00
-7409,41	919,00
-7390,95	925,00
-7372,53	784,00
-7354,14	913,00
-7335,78	847,00
-7317,46	880,00
-7299,18	853,00
-7280,92	934,00
-7262,71	1116,00
-7244,52	1123,00
-7226,38	1069,00
-7208,26	1009,00
-7190,18	1003,00
-7172,14	880,00
-7154,12	1021,00
-7136,15	990,00
-7118,20	1056,00
-7100,29	1056,00
-7082,41	1114,00
-7064,57	995,00
-7046,76	1136,00
-7028,98	964,00
-7011,24	974,00
-6993,53	824,00
-6975,85	847,00
-6958,20	679,00
-6940,59	718,00
-6923,01	606,00
-6905,46	905,00
-6887,94	841,00
-6870,46	-1335,00
-6853,01	1059,00
-6835,59	943,00
-6818,21	834,00
-6800,85	854,00
-6783,53	818,00
-6766,24	714,00
-6748,98	779,00
-6731,76	678,00
-6714,56	658,00
-6697,40	562,00
-6680,26	588,00
-6663,16	519,00
-6646,09	768,00
-6629,05	858,00
-6612,05	874,00
-6595,07	789,00
-6578,13	852,00
-6561,21	691,00
-6544,33	775,00
-6527,47	515,00
-6510,65	692,00
-6493,86	491,00
-6477,10	600,00
-6460,36	688,00
-6443,66	470,00
-6426,99	477,00
-6410,35	585,00
-6393,74	671,00
-6377,16	484,00
-6360,61	714,00
-6344,09	580,00
-6327,59	625,00
-6311,13	779,00
-6294,70	606,00
-6278,29	702,00
-6261,92	772,00
-6245,58	834,00
-6229,26	927,00
-6212,97	768,00
-6196,72	625,00
-6180,49	672,00
-6164,29	426,00
-6148,12	654,00
-6131,98	665,00
-6115,86	458,00
-6099,78	489,00
-6083,72	521,00
-6067,69	523,00
-6051,69	545,00
-6035,72	520,00
-6019,78	593,00
-6003,87	663,00
-5987,98	581,00
-5972,12	721,00
-5956,29	610,00
-5940,49	627,00
-5924,71	662,00
-5908,96	548,00
-5893,24	513,00
-5877,55	535,00
-5861,89	629,00
-5846,25	379,00
-5830,64	630,00
-5815,05	506,00
-5799,50	467,00
-5783,97	600,00
-5768,47	573,00
-5752,99	769,00
-5737,55	672,00
-5722,12	680,00
-5706,73	635,00
-5691,36	675,00
-5676,02	568,00
-5660,71	508,00
-5645,42	405,00
-5630,16	583,00
-5614,92	655,00
-5599,71	505,00
-5584,53	662,00
-5569,37	673,00
-5554,24	1453,00
-5539,14	454,00
-5524,06	604,00
-5509,01	558,00
-5493,98	553,00
-5478,98	616,00
-5464,00	584,00
-5449,05	582,00
-5434,13	570,00
-5419,23	524,00
-5404,36	423,00
-5389,51	566,00
-5374,69	603,00
-5359,89	725,00
-5345,12	685,00
-5330,37	740,00
-5315,65	696,00
-5300,95	689,00
-5286,28	611,00
-5271,63	536,00
-5257,01	659,00
-5242,41	598,00
-5227,84	539,00
-5213,29	627,00
-5198,76	498,00
-5184,26	558,00
-5169,79	472,00
-5155,33	520,00
-5140,91	536,00
-5126,51	512,00
-5112,13	561,00
-5097,77	523,00
-5083,44	546,00
-5069,13	429,00
-5054,85	550,00
-5040,59	591,00
-5026,36	539,00
-5012,15	701,00
-4997,96	613,00
-4983,80	494,00
-4969,66	515,00
-4955,54	472,00
-4941,44	567,00
-4927,37	585,00
-4913,33	631,00
-4899,30	639,00
-4885,30	776,00
-4871,33	527,00
-4857,37	510,00
-4843,44	477,00
-4829,53	623,00
-4815,65	535,00
-4801,79	436,00
-4787,95	629,00
-4774,13	487,00
-4760,34	495,00
-4746,56	492,00
-4732,82	439,00
-4719,09	538,00
-4705,38	689,00
-4691,70	643,00
-4678,04	670,00
-4664,41	725,00
-4650,79	674,00
-4637,20	477,00
-4623,63	496,00
-4610,08	650,00
-4596,56	559,00
-4583,05	518,00
-4569,57	472,00
-4556,11	649,00
-4542,67	528,00
-4529,25	490,00
-4515,86	502,00
-4502,49	570,00
-4489,13	594,00
-4475,80	677,00
-4462,49	469,00
-4449,21	589,00
-4435,94	502,00
-4422,70	478,00
-4409,47	567,00
-4396,27	615,00
-4383,09	478,00
-4369,93	493,00
-4356,79	402,00
-4343,67	460,00
-4330,58	636,00
-4317,50	607,00
-4304,45	558,00
-4291,41	583,00
-4278,40	473,00
-4265,41	430,00
-4252,44	605,00
-4239,49	534,00
-4226,55	583,00
-4213,65	524,00
-4200,76	548,00
-4187,89	555,00
-4175,04	450,00
-4162,21	372,00
-4149,40	540,00
-4136,61	491,00
-4123,85	382,00
-4111,10	550,00
-4098,37	499,00
-4085,66	558,00
-4072,98	539,00
-4060,31	425,00
-4047,66	518,00
-4035,04	583,00
-4022,43	446,00
-4009,84	457,00
-3997,27	423,00
-3984,72	507,00
-3972,19	451,00
-3959,69	493,00
-3947,20	433,00
-3934,73	407,00
-3922,27	416,00
-3909,84	378,00
-3897,43	524,00
-3885,04	527,00
-3872,67	512,00
-3860,31	442,00
-3847,98	526,00
-3835,66	440,00
-3823,36	459,00
-3811,09	386,00
-3798,83	440,00
-3786,59	483,00
-3774,37	462,00
-3762,17	378,00
-3749,98	504,00
-3737,82	520,00
-3725,67	562,00
-3713,55	442,00
-3701,44	515,00
-3689,35	512,00
-3677,28	540,00
-3665,22	464,00
-3653,19	477,00
-3641,17	499,00
-3629,18	536,00
-3617,20	497,00
-3605,24	516,00
-3593,30	561,00
-3581,37	529,00
-3569,47	537,00
-3557,58	446,00
-3545,71	516,00
-3533,86	450,00
-3522,02	457,00
-3510,21	511,00
-3498,41	459,00
-3486,63	512,00
-3474,87	527,00
-3463,12	414,00
-3451,40	497,00
-3439,69	458,00
-3428,00	491,00
-3416,33	490,00
-3404,67	377,00
-3393,03	421,00
-3381,41	521,00
-3369,81	545,00
-3358,22	518,00
-3346,66	564,00
-3335,10	527,00
-3323,57	415,00
-3312,06	497,00
-3300,56	478,00
-3289,08	407,00
-3277,61	501,00
-3266,16	472,00
-3254,73	428,00
-3243,32	463,00
-3231,92	399,00
-3220,55	620,00
-3209,18	589,00
-3197,84	453,00
-3186,51	408,00
-3175,20	460,00
-3163,90	353,00
-3152,63	481,00
-3141,36	367,00
-3130,12	506,00
-3118,89	546,00
-3107,68	412,00
-3096,49	479,00
-3085,31	370,00
-3074,15	545,00
-3063,00	374,00
-3051,87	446,00
-3040,76	420,00
-3029,67	581,00
-3018,59	536,00
-3007,52	633,00
-2996,48	397,00
-2985,44	498,00
-2974,43	501,00
-2963,43	372,00
-2952,45	486,00
-2941,48	538,00
-2930,53	456,00
-2919,60	454,00
-2908,68	431,00
-2897,78	487,00
-2886,89	471,00
-2876,02	532,00
-2865,17	359,00
-2854,33	478,00
-2843,50	388,00
-2832,70	441,00
-2821,90	457,00
-2811,13	545,00
-2800,37	495,00
-2789,62	341,00
-2778,89	510,00
-2768,18	449,00
-2757,48	527,00
-2746,80	506,00
-2736,13	453,00
-2725,48	528,00
-2714,84	377,00
-2704,22	467,00
-2693,61	438,00
-2683,02	377,00
-2672,45	528,00
-2661,89	510,00
-2651,34	436,00
-2640,81	494,00
-2630,30	484,00
-2619,80	496,00
-2609,31	546,00
-2598,84	485,00
-2588,39	516,00
-2577,95	460,00
-2567,52	387,00
-2557,11	416,00
-2546,71	523,00
-2536,33	590,00
-2525,97	488,00
-2515,62	499,00
-2505,28	469,00
-2494,96	528,00
-2484,65	525,00
-2474,36	622,00
-2464,08	417,00
-2453,82	584,00
-2443,57	533,00
-2433,33	389,00
-2423,11	535,00
-2412,91	504,00
-2402,72	456,00
-2392,54	463,00
-2382,38	422,00
-2372,23	451,00
-2362,09	-1751,00
-2351,97	509,00
-2341,87	392,00
-2331,78	465,00
-2321,70	483,00
-2311,64	431,00
-2301,59	474,00
-2291,55	437,00
-2281,53	498,00
-2271,53	363,00
-2261,53	527,00
-2251,55	504,00
-2241,59	455,00
-2231,64	388,00
-2221,70	462,00
-2211,78	443,00
-2201,87	537,00
-2191,97	508,00
-2182,09	430,00
-2172,22	525,00
-2162,37	460,00
-2152,53	395,00
-2142,70	461,00
-2132,89	456,00
-2123,09	481,00
-2113,30	448,00
-2103,53	499,00
-2093,77	479,00
-2084,02	438,00
-2074,29	513,00
-2064,57	480,00
-2054,86	493,00
-2045,17	587,00
-2035,49	477,00
-2025,82	357,00
-2016,17	512,00
-2006,53	347,00
-1996,91	476,00
-1987,29	450,00
-1977,69	475,00
-1968,11	452,00
-1958,53	416,00
-1948,97	452,00
-1939,42	444,00
-1929,89	503,00
-1920,37	473,00
-1910,86	406,00
-1901,36	484,00
-1891,88	413,00
-1882,41	481,00
-1872,95	550,00
-1863,51	473,00
-1854,08	451,00
-1844,66	497,00
-1835,26	534,00
-1825,86	504,00
-1816,48	383,00
-1807,11	518,00
-1797,76	439,00
-1788,42	572,00
-1779,09	461,00
-1769,77	458,00
-1760,47	591,00
-1751,17	448,00
-1741,89	374,00
-1732,63	503,00
-1723,37	590,00
-1714,13	569,00
-1704,90	426,00
-1695,68	670,00
-1686,48	431,00
-1677,29	380,00
-1668,11	563,00
-1658,94	414,00
-1649,78	480,00
-1640,64	499,00
-1631,51	457,00
-1622,39	497,00
-1613,28	417,00
-1604,19	583,00
-1595,10	451,00
-1586,03	424,00
-1576,97	501,00
-1567,93	458,00
-1558,89	495,00
-1549,87	539,00
-1540,86	399,00
-1531,86	438,00
-1522,87	370,00
-1513,90	539,00
-1504,93	459,00
-1495,98	472,00
-1487,04	489,00
-1478,12	380,00
-1469,20	510,00
-1460,30	454,00
-1451,40	587,00
-1442,52	531,00
-1433,65	588,00
-1424,80	471,00
-1415,95	455,00
-1407,12	547,00
-1398,30	392,00
-1389,48	469,00
-1380,69	425,00
-1371,90	371,00
-1363,12	468,00
-1354,36	535,00
-1345,60	483,00
-1336,86	498,00
-1328,13	520,00
-1319,41	508,00
-1310,70	462,00
-1302,01	396,00
-1293,32	438,00
-1284,65	478,00
-1275,99	496,00
-1267,33	574,00
-1258,69	503,00
-1250,06	451,00
-1241,45	435,00
-1232,84	606,00
-1224,25	447,00
-1215,66	470,00
-1207,09	528,00
-1198,53	456,00
-1189,97	442,00
-1181,43	462,00
-1172,91	411,00
-1164,39	485,00
-1155,88	366,00
-1147,38	467,00
-1138,90	502,00
-1130,43	413,00
-1121,96	456,00
-1113,51	458,00
-1105,07	473,00
-1096,64	548,00
-1088,22	479,00
-1079,81	460,00
-1071,41	597,00
-1063,02	444,00
-1054,65	477,00
-1046,28	437,00
-1037,92	527,00
-1029,58	398,00
-1021,24	480,00
-1012,92	674,00
-1004,61	433,00
-996,30	552,00
-988,01	415,00
-979,73	466,00
-971,46	524,00
-963,20	449,00
-954,95	445,00
-946,71	436,00
-938,48	493,00
-930,26	556,00
-922,06	443,00
-913,86	402,00
-905,67	399,00
-897,49	624,00
-889,33	358,00
-881,17	600,00
-873,02	458,00
-864,89	459,00
-856,76	463,00
-848,65	433,00
-840,54	498,00
-832,45	530,00
-824,36	407,00
-816,29	488,00
-808,22	468,00
-800,17	563,00
-792,12	493,00
-784,09	458,00
-776,06	382,00
-768,05	488,00
-760,04	490,00
-752,05	489,00
-744,07	462,00
-736,09	489,00
-728,13	355,00
-720,17	478,00
-712,23	465,00
-704,29	435,00
-696,37	439,00
-688,45	567,00
-680,55	498,00
-672,65	521,00
-664,77	434,00
-656,89	532,00
-649,03	459,00
-641,17	589,00
-633,32	462,00
-625,49	514,00
-617,66	432,00
-609,84	489,00
-602,03	422,00
-594,23	545,00
-586,45	492,00
-578,67	468,00
-570,90	525,00
-563,14	387,00
-555,39	550,00
-547,65	499,00
-539,91	548,00
-532,19	525,00
-524,48	502,00
-516,78	413,00
-509,08	454,00
-501,40	476,00
-493,72	461,00
-486,06	392,00
-478,40	479,00
-470,76	464,00
-463,12	415,00
-455,49	434,00
-447,87	493,00
-440,26	462,00
-432,66	482,00
-425,07	528,00
-417,49	593,00
-409,92	425,00
-402,35	401,00
-394,80	437,00
-387,25	522,00
-379,72	521,00
-372,19	569,00
-364,67	522,00
-357,17	418,00
-349,67	475,00
-342,18	459,00
-334,69	449,00
-327,22	492,00
-319,76	499,00
-312,30	510,00
-304,86	408,00
-297,42	555,00
-290,00	409,00
-282,58	514,00
-275,17	568,00
-267,77	583,00
-260,37	530,00
-252,99	519,00
-245,62	570,00
-238,25	527,00
-230,90	547,00
-223,55	634,00
-216,21	607,00
-208,88	723,00
-201,56	529,00
-194,25	558,00
-186,94	655,00
-179,65	613,00
-172,36	647,00
-165,08	699,00
-157,81	621,00
-150,55	792,00
-143,30	779,00
-136,06	781,00
-128,82	824,00
-121,60	855,00
-114,38	907,00
-107,17	992,00
-99,97	1114,00
-92,78	1078,00
-85,60	1209,00
-78,42	1428,00
-71,25	1452,00
-64,10	1635,00
-56,95	1834,00
-49,81	2011,00
-42,67	2680,00
-35,55	3031,00
-28,43	4020,00
-21,33	6292,00
-14,23	19198,00
-7,14	57498,00
-0,05	57284,00
7,02	57012,00
14,09	57319,00
21,14	17144,00
28,19	7343,00
35,23	4818,00
42,27	3897,00
49,29	3151,00
56,31	2702,00
63,32	2543,00
70,32	2056,00
77,31	1890,00
84,29	1639,00
91,27	1657,00
98,23	1598,00
105,19	1494,00
112,14	1878,00
119,09	3166,00
126,02	5354,00
132,95	6719,00
139,87	7089,00
146,78	7377,00
153,68	7230,00
160,58	7376,00
167,46	7243,00
174,34	7352,00
181,21	7221,00
188,08	7135,00
194,93	7254,00
201,78	7140,00
208,62	7335,00
215,45	7387,00
222,27	7404,00
229,09	7505,00
235,90	7474,00
242,70	7318,00
249,49	7326,00
256,27	7285,00
263,05	7303,00
269,82	7330,00
276,58	7265,00
283,33	7310,00
290,08	7122,00
296,82	7220,00
303,55	7057,00
310,27	6966,00
316,98	7046,00
323,69	7111,00
330,39	6989,00
337,08	7065,00
343,76	7001,00
350,44	7171,00
357,11	7020,00
363,77	7035,00
370,42	6945,00
377,07	6968,00
383,71	7037,00
390,34	6917,00
396,96	7100,00
403,58	6963,00
410,19	7150,00
416,79	7130,00
423,38	7153,00
429,97	6985,00
436,55	6857,00
443,12	6675,00
449,68	6776,00
456,24	6744,00
462,79	6752,00
469,33	6682,00
475,86	6842,00
482,39	6665,00
488,91	6824,00
495,42	6660,00
501,93	6700,00
508,42	6539,00
514,91	6557,00
521,40	6526,00
527,87	6514,00
534,34	6524,00
540,80	6437,00
547,25	6585,00
553,70	6461,00
560,14	6458,00
566,57	6553,00
573,00	6457,00
579,41	6452,00
585,83	6608,00
592,23	6410,00
598,62	6441,00
605,01	6454,00
611,40	6349,00
617,77	6461,00
624,14	6420,00
630,50	6241,00
636,85	6248,00
643,20	6196,00
649,54	6214,00
655,87	6214,00
662,20	6144,00
668,52	6246,00
674,83	6110,00
681,13	6095,00
687,43	6172,00
693,72	5953,00
700,00	5922,00
706,28	5986,00
712,55	6009,00
718,81	6175,00
725,07	6154,00
731,32	6132,00
737,56	6094,00
743,79	5982,00
750,02	5994,00
756,24	6028,00
762,46	6005,00
768,67	6056,00
774,87	5905,00
781,06	5963,00
787,25	6000,00
793,43	5910,00
799,60	5913,00
805,77	6016,00
811,93	6038,00
818,08	5910,00
824,23	6059,00
830,37	5966,00
836,50	5979,00
842,63	5879,00
848,75	5794,00
854,87	5766,00
860,97	5904,00
867,07	5835,00
873,17	5819,00
879,25	5692,00
885,33	5720,00
891,41	5728,00
897,47	5834,00
903,53	5673,00
909,59	5759,00
915,63	5655,00
921,67	5682,00
927,71	5633,00
933,74	5622,00
939,76	5471,00
945,77	5490,00
951,78	5713,00
957,78	5485,00
963,78	5598,00
969,77	5608,00
975,75	5541,00
981,72	5515,00
987,69	6367,00
993,66	5719,00
999,61	5618,00
1005,56	5573,00
1011,51	5552,00
1017,44	5615,00
1023,37	5565,00
1029,30	5587,00
1035,22	5635,00
1041,13	5590,00
1047,03	5629,00
1052,93	5649,00
1058,83	5949,00
1064,71	5926,00
1070,59	5849,00
1076,47	5711,00
1082,33	5689,00
1088,20	5583,00
1094,05	5557,00
1099,90	5304,00
1105,74	5511,00
1111,58	5461,00
1117,41	5464,00
1123,23	5637,00
1129,05	5590,00
1134,86	5754,00
1140,67	5513,00
1146,47	5519,00
1152,26	5539,00
1158,05	5319,00
1163,83	5374,00
1169,60	5399,00
1175,37	5429,00
1181,13	5398,00
1186,89	5408,00
1192,64	5387,00
1198,38	5532,00
1204,12	5315,00
1209,85	5334,00
1215,58	5423,00
1221,30	5377,00
1227,02	5329,00
1232,72	5346,00
1238,43	5423,00
1244,12	5325,00
1249,81	5401,00
1255,50	5514,00
1261,17	5487,00
1266,85	5383,00
1272,51	5420,00
1278,17	5548,00
1283,83	5417,00
1289,47	5709,00
1295,12	5959,00
1300,75	5835,00
1306,38	5816,00
1312,01	5555,00
1317,63	5340,00
1323,24	5496,00
1328,85	5343,00
1334,45	5448,00
1340,04	5229,00
1345,63	5447,00
1351,22	5397,00
1356,80	5427,00
1362,37	5540,00
1367,93	5386,00
1373,49	5580,00
1379,05	5409,00
1384,60	5431,00
1390,14	5462,00
1395,68	5398,00
1401,21	5376,00
1406,74	5459,00
1412,26	5719,00
1417,77	5796,00
1423,28	5526,00
1428,78	5856,00
1434,28	5905,00
1439,77	6050,00
1445,26	5957,00
1450,74	5905,00
1456,22	5800,00
1461,68	5705,00
1467,15	5566,00
1472,61	5460,00
1478,06	5474,00
1483,51	5436,00
1488,95	5223,00
1494,38	5243,00
1499,81	5075,00
1505,24	5136,00
1510,65	5125,00
1516,07	5174,00
1521,48	5084,00
1526,88	5009,00
1532,27	5016,00
1537,67	4991,00
1543,05	4992,00
1548,43	4955,00
1553,81	4970,00
1559,18	4828,00
1564,54	4992,00
1569,90	4950,00
1575,25	4856,00
1580,60	4729,00
1585,94	4928,00
1591,28	4884,00
1596,61	4876,00
1601,93	4938,00
1607,25	4901,00
1612,57	4831,00
1617,88	4779,00
1623,18	4909,00
1628,48	4746,00
1633,77	4742,00
1639,06	4742,00
1644,34	4791,00
1649,62	4605,00
1654,89	4625,00
1660,16	4654,00
1665,42	4549,00
1670,67	4556,00
1675,92	4444,00
1681,17	4460,00
1686,41	4521,00
1691,64	4550,00
1696,87	4486,00
1702,10	4504,00
1707,32	4462,00
1712,53	4408,00
1717,74	4381,00
1722,94	4419,00
1728,14	4401,00
1733,33	4425,00
1738,52	4220,00
1743,70	4258,00
1748,88	4180,00
1754,05	4353,00
1759,22	4168,00
1764,38	4554,00
1769,53	4329,00
1774,69	4169,00
1779,83	4058,00
1784,97	4140,00
1790,11	4176,00
1795,24	4049,00
1800,36	4073,00
1805,48	4140,00
1810,60	4133,00
1815,71	3929,00
1820,82	4041,00
1825,92	4026,00
1831,01	4077,00
1836,10	4154,00
1841,19	4150,00
1846,26	3929,00
1851,34	4066,00
1856,41	4041,00
1861,47	3972,00
1866,53	4101,00
1871,59	4015,00
1876,64	3935,00
1881,68	3882,00
1886,72	3964,00
1891,76	3858,00
1896,79	3815,00
1901,81	3824,00
1906,83	3864,00
1911,85	3739,00
1916,86	3757,00
1921,86	3619,00
1926,86	3707,00
1931,86	3749,00
1936,85	3610,00
1941,83	3580,00
1946,81	3670,00
1951,79	3479,00
1956,76	3591,00
1961,72	3446,00
1966,68	3551,00
1971,64	3474,00
1976,59	3511,00
1981,54	3434,00
1986,48	3456,00
1991,42	3347,00
1996,35	3665,00
2001,27	3456,00
2006,20	3392,00
2011,11	3501,00
2016,03	3411,00
2020,93	3326,00
2025,84	3358,00
2030,73	3337,00
2035,63	3277,00
2040,52	3396,00
2045,40	3360,00
2050,28	3354,00
2055,15	3236,00
2060,02	3133,00
2064,89	3273,00
2069,75	3313,00
2074,60	3250,00
2079,46	3207,00
2084,30	3207,00
2089,14	3188,00
2093,98	3222,00
2098,81	3189,00
2103,64	3245,00
2108,46	3206,00
2113,28	3271,00
2118,09	3132,00
2122,90	3154,00
2127,70	3179,00
2132,50	3188,00
2137,30	3210,00
2142,09	3157,00
2146,87	3054,00
2151,66	3069,00
2156,43	2996,00
2161,20	3056,00
2165,97	3092,00
2170,73	3019,00
2175,49	3105,00
2180,24	3072,00
2184,99	3040,00
2189,74	3014,00
2194,48	3092,00
2199,21	2912,00
2203,94	3022,00
2208,67	2832,00
2213,39	2784,00
2218,11	2925,00
2222,82	2785,00
2227,53	2938,00
2232,23	2915,00
2236,93	2858,00
2241,63	2828,00
2246,32	2876,00
2251,00	2828,00
2255,68	2797,00
2260,36	2850,00
2265,03	2759,00
2269,70	2846,00
2274,36	2816,00
2279,02	2769,00
2283,68	2713,00
2288,33	2774,00
2292,97	2824,00
2297,61	2632,00
2302,25	2743,00
2306,88	2635,00
2311,51	2641,00
2316,14	2663,00
2320,75	2683,00
2325,37	2629,00
2329,98	2698,00
2334,59	2626,00
2339,19	2573,00
2343,79	2544,00
2348,38	2676,00
2352,97	2539,00
2357,55	2525,00
2362,13	2543,00
2366,71	2395,00
2371,28	2600,00
2375,85	2493,00
2380,41	2479,00
2384,97	2411,00
2389,52	2460,00
2394,07	2449,00
2398,62	2384,00
2403,16	2464,00
2407,70	2317,00
2412,23	2380,00
2416,76	2426,00
2421,29	2453,00
2425,81	2448,00
2430,32	2365,00
2434,84	2258,00
2439,34	2311,00
2443,85	2417,00
2448,35	2329,00
2452,84	2258,00
2457,33	2282,00
2461,82	2197,00
2466,30	2227,00
2470,78	2250,00
2475,25	2214,00
2479,72	2230,00
2484,19	2256,00
2488,65	2175,00
2493,11	2151,00
2497,56	2237,00
2502,01	2070,00
2506,46	2095,00
2510,90	2163,00
2515,34	2069,00
2519,77	2096,00
2524,20	2113,00
2528,62	2099,00
2533,04	2216,00
2537,46	2024,00
2541,87	2123,00
2546,28	2024,00
2550,68	2090,00
2555,08	2071,00
2559,48	1970,00
2563,87	1911,00
2568,26	1886,00
2572,64	2046,00
2577,02	1971,00
2581,40	1829,00
2585,77	1988,00
2590,14	1851,00
2594,50	1866,00
2598,86	1826,00
2603,22	1760,00
2607,57	1805,00
2611,92	1788,00
2616,26	1845,00
2620,60	1842,00
2624,94	1785,00
2629,27	1830,00
2633,60	1748,00
2637,92	1845,00
2642,24	1816,00
2646,56	1765,00
2650,87	1608,00
2655,18	1823,00
2659,48	1723,00
2663,78	1674,00
2668,08	1692,00
2672,37	1732,00
2676,66	1698,00
2680,95	1640,00
2685,23	1801,00
2689,50	1683,00
2693,78	1622,00
2698,05	1620,00
2702,31	1724,00
2706,57	1772,00
2710,83	1807,00
2715,08	1832,00
2719,33	1738,00
2723,58	1723,00
2727,82	1756,00
2732,06	1726,00
2736,29	1755,00
2740,53	1646,00
2744,75	1641,00
2748,97	1563,00
2753,19	1606,00
2757,41	1636,00
2761,62	1650,00
2765,83	1644,00
2770,03	1562,00
2774,23	1627,00
2778,43	1470,00
2782,62	1606,00
2786,81	1581,00
2791,00	1586,00
2795,18	1533,00
2799,35	1634,00
2803,53	1519,00
2807,70	1484,00
2811,86	1558,00
2816,03	1684,00
2820,19	1590,00
2824,34	1531,00
2828,49	1604,00
2832,64	1709,00
2836,78	1819,00
2840,92	1833,00
2845,06	1983,00
2849,19	2097,00
2853,32	2123,00
2857,45	2061,00
2861,57	2119,00
2865,69	2075,00
2869,80	1897,00
2873,91	2018,00
2878,02	2155,00
2882,12	2111,00
2886,22	2117,00
2890,32	1972,00
2894,41	2064,00
2898,50	2008,00
2902,58	1851,00
2906,67	1854,00
2910,74	1786,00
2914,82	1747,00
2918,89	1870,00
2922,96	1695,00
2927,02	1563,00
2931,08	1551,00
2935,13	1511,00
2939,19	1512,00
2943,24	1484,00
2947,28	1486,00
2951,32	1389,00
2955,36	1291,00
2959,40	1444,00
2963,43	1342,00
2967,46	1264,00
2971,48	1215,00
2975,50	1216,00
2979,52	1269,00
2983,53	1183,00
2987,54	1246,00
2991,55	1184,00
2995,55	1276,00
2999,55	1178,00
3003,54	1117,00
3007,54	1164,00
3011,53	1144,00
3015,51	1046,00
3019,49	1164,00
3023,47	1062,00
3027,45	1162,00
3031,42	1062,00
3035,39	1134,00
3039,35	1003,00
3043,31	1092,00
3047,27	999,00
3051,22	1120,00
3055,17	1021,00
3059,12	983,00
3063,06	1075,00
3067,00	933,00
3070,94	925,00
3074,87	1064,00
3078,80	968,00
3082,73	954,00
3086,65	1003,00
3090,57	968,00
3094,49	968,00
3098,40	957,00
3102,31	929,00
3106,22	953,00
3110,12	871,00
3114,02	893,00
3117,92	974,00
3121,81	908,00
3125,70	881,00
3129,58	856,00
3133,47	852,00
3137,34	962,00
3141,22	968,00
3145,09	937,00
3148,96	906,00
3152,83	861,00
3156,69	856,00
3160,55	815,00
3164,40	906,00
3168,26	870,00
3172,10	875,00
3175,95	892,00
3179,79	805,00
3183,63	848,00
3187,47	842,00
3191,30	855,00
3195,13	795,00
3198,95	787,00
3202,78	865,00
3206,60	746,00
3210,41	761,00
3214,23	771,00
3218,03	845,00
3221,84	797,00
3225,64	752,00
3229,44	705,00
3233,24	863,00
3237,03	709,00
3240,82	748,00
3244,61	746,00
3248,39	730,00
3252,17	747,00
3255,95	850,00
3259,72	735,00
3263,49	839,00
3267,26	677,00
3271,03	740,00
3274,79	724,00
3278,54	715,00
3282,30	607,00
3286,05	769,00
3289,80	758,00
3293,54	683,00
3297,29	700,00
3301,02	704,00
3304,76	771,00
3308,49	745,00
3312,22	724,00
3315,95	742,00
3319,67	635,00
3323,39	764,00
3327,10	679,00
3330,82	629,00
3334,53	718,00
3338,24	761,00
3341,94	659,00
3345,64	682,00
3349,34	678,00
3353,03	702,00
3356,72	661,00
3360,41	674,00
3364,10	557,00
3367,78	681,00
3371,46	610,00
3375,13	655,00
3378,81	651,00
3382,48	589,00
3386,14	629,00
3389,81	728,00
3393,47	686,00
3397,12	726,00
3400,78	621,00
3404,43	615,00
3408,08	693,00
3411,72	487,00
3415,36	619,00
3419,00	579,00
3422,64	518,00
3426,27	605,00
3429,90	620,00
3433,53	588,00
3437,15	531,00
3440,77	477,00
3444,39	558,00
3448,00	626,00
3451,62	576,00
3455,22	562,00
3458,83	560,00
3462,43	552,00
3466,03	636,00
3469,63	512,00
3473,22	498,00
3476,81	535,00
3480,40	668,00
3483,99	557,00
3487,57	586,00
3491,15	594,00
3494,72	660,00
3498,29	666,00
3501,86	450,00
3505,43	540,00
3508,99	522,00
3512,56	484,00
3516,11	537,00
3519,67	475,00
3523,22	477,00
3526,77	439,00
3530,32	731,00
3533,86	613,00
3537,40	608,00
3540,94	536,00
3544,47	580,00
3548,00	437,00
3551,53	534,00
3555,06	558,00
3558,58	550,00
3562,10	567,00
3565,62	483,00
3569,13	523,00
3572,64	611,00
3576,15	477,00
3579,66	440,00
3583,16	558,00
3586,66	557,00
3590,16	389,00
3593,65	454,00
3597,14	438,00
3600,63	449,00
3604,11	447,00
3607,60	502,00
3611,08	515,00
3614,55	590,00
3618,03	462,00
3621,50	392,00
3624,97	381,00
3628,43	488,00
3631,90	454,00
3635,36	382,00
3638,81	442,00
3642,27	405,00
3645,72	519,00
3649,17	462,00
3652,61	441,00
3656,06	476,00
3659,50	501,00
3662,93	448,00
3666,37	506,00
3669,80	551,00
3673,23	540,00
3676,65	542,00
3680,08	490,00
3683,50	413,00
3686,92	399,00
3690,33	447,00
3693,74	429,00
3697,15	487,00
3700,56	490,00
3703,96	438,00
3707,36	336,00
3710,76	384,00
3714,16	411,00
3717,55	435,00
3720,94	431,00
3724,33	411,00
3727,71	466,00
3731,10	396,00
3734,48	433,00
3737,85	339,00
3741,23	449,00
3744,60	431,00
3747,97	360,00
3751,33	495,00
3754,69	365,00
3758,05	373,00
3761,41	311,00
3764,77	362,00
3768,12	377,00
3771,47	393,00
3774,82	374,00
3778,16	-6,00
3781,50	5,00
3784,84	6,00
3788,18	5,00
>>>>>End Processed Spectral Data<<<<<
