SpectraSuite Data File
++++++++++++++++++++++++++++++++++++
Date: Mon Jan 05 16:25:34 ICT 2026
User: Administrator
Dark Spectrum Present: Yes
Reference Spectrum Present: No
Number of Sampled Component Spectra: 1
Spectrometers: MAYP113682
Integration Time (usec): 3000000 (MAYP113682)
Spectra Averaged: 1 (MAYP113682)
Boxcar Smoothing: 0 (MAYP113682)
Correct for Electrical Dark: No (MAYP113682)
Strobe/Lamp Enabled: No (MAYP113682)
Correct for Detector Non-linearity: No (MAYP113682)
Correct for Stray Light: No (MAYP113682)
Number of Pixels in Processed Spectrum: 2068
>>>>>Begin Processed Spectral Data<<<<<
-37534,58	16,00
-37414,56	5,00
-37295,11	1,00
-37176,24	1,00
-37057,95	258,00
-36940,22	365,00
-36823,05	363,00
-36706,45	387,00
-36590,40	437,00
-36474,90	437,00
-36359,95	398,00
-36245,55	414,00
-36131,68	322,00
-36018,35	360,00
-35905,55	395,00
-35793,29	470,00
-35681,54	387,00
-35570,32	392,00
-35459,62	426,00
-35349,43	467,00
-35239,75	412,00
-35130,58	408,00
-35021,91	379,00
-34913,74	419,00
-34806,07	422,00
-34698,89	525,00
-34592,20	425,00
-34486,00	391,00
-34380,28	476,00
-34275,04	420,00
-34170,27	377,00
-34065,98	492,00
-33962,16	414,00
-33858,81	459,00
-33755,92	338,00
-33653,49	482,00
-33551,52	540,00
-33450,01	500,00
-33348,94	381,00
-33248,33	364,00
-33148,16	448,00
-33048,43	356,00
-32949,14	602,00
-32850,29	507,00
-32751,87	405,00
-32653,89	446,00
-32556,33	387,00
-32459,20	400,00
-32362,49	468,00
-32266,19	420,00
-32170,32	395,00
-32074,86	511,00
-31979,82	499,00
-31885,18	435,00
-31790,95	523,00
-31697,12	468,00
-31603,69	517,00
-31510,67	501,00
-31418,04	402,00
-31325,80	413,00
-31233,95	361,00
-31142,49	446,00
-31051,42	459,00
-30960,73	499,00
-30870,43	581,00
-30780,50	476,00
-30690,95	451,00
-30601,77	532,00
-30512,97	398,00
-30424,53	443,00
-30336,46	459,00
-30248,76	461,00
-30161,42	520,00
-30074,44	396,00
-29987,81	505,00
-29901,55	537,00
-29815,63	429,00
-29730,07	477,00
-29644,86	512,00
-29560,00	452,00
-29475,48	487,00
-29391,30	452,00
-29307,47	495,00
-29223,97	458,00
-29140,81	420,00
-29057,99	526,00
-28975,50	407,00
-28893,34	461,00
-28811,51	478,00
-28730,00	526,00
-28648,82	342,00
-28567,97	438,00
-28487,43	405,00
-28407,21	433,00
-28327,32	410,00
-28247,73	614,00
-28168,46	488,00
-28089,50	477,00
-28010,85	339,00
-27932,51	472,00
-27854,48	487,00
-27776,75	438,00
-27699,32	443,00
-27622,19	474,00
-27545,37	534,00
-27468,84	479,00
-27392,60	471,00
-27316,66	451,00
-27241,01	464,00
-27165,66	338,00
-27090,59	396,00
-27015,81	494,00
-26941,31	421,00
-26867,10	402,00
-26793,17	456,00
-26719,52	389,00
-26646,15	397,00
-26573,06	374,00
-26500,24	404,00
-26427,70	558,00
-26355,43	406,00
-26283,43	495,00
-26211,71	471,00
-26140,25	513,00
-26069,06	449,00
-25998,13	374,00
-25927,46	395,00
-25857,06	383,00
-25786,92	496,00
-25717,04	421,00
-25647,42	476,00
-25578,05	395,00
-25508,94	332,00
-25440,09	471,00
-25371,48	440,00
-25303,13	510,00
-25235,02	366,00
-25167,17	415,00
-25099,56	485,00
-25032,19	434,00
-24965,07	427,00
-24898,20	361,00
-24831,56	347,00
-24765,17	419,00
-24699,01	329,00
-24633,10	468,00
-24567,41	496,00
-24501,97	400,00
-24436,75	502,00
-24371,77	409,00
-24307,03	355,00
-24242,51	397,00
-24178,22	366,00
-24114,16	462,00
-24050,32	424,00
-23986,71	512,00
-23923,32	423,00
-23860,16	464,00
-23797,22	436,00
-23734,50	468,00
-23672,00	388,00
-23609,71	485,00
-23547,65	330,00
-23485,80	466,00
-23424,16	325,00
-23362,74	596,00
-23301,53	505,00
-23240,54	337,00
-23179,75	340,00
-23119,17	442,00
-23058,80	398,00
-22998,64	475,00
-22938,68	436,00
-22878,93	422,00
-22819,39	337,00
-22760,04	332,00
-22700,90	388,00
-22641,96	412,00
-22583,22	413,00
-22524,68	458,00
-22466,33	405,00
-22408,19	410,00
-22350,23	395,00
-22292,48	364,00
-22234,92	492,00
-22177,55	547,00
-22120,37	478,00
-22063,38	372,00
-22006,58	411,00
-21949,98	498,00
-21893,56	353,00
-21837,33	545,00
-21781,28	356,00
-21725,42	433,00
-21669,74	493,00
-21614,25	449,00
-21558,94	427,00
-21503,81	430,00
-21448,86	486,00
-21394,10	464,00
-21339,51	410,00
-21285,10	377,00
-21230,86	412,00
-21176,81	346,00
-21122,93	405,00
-21069,22	389,00
-21015,69	387,00
-20962,33	415,00
-20909,14	417,00
-20856,13	344,00
-20803,28	550,00
-20750,61	469,00
-20698,10	368,00
-20645,76	351,00
-20593,59	556,00
-20541,59	446,00
-20489,75	429,00
-20438,07	361,00
-20386,56	529,00
-20335,22	395,00
-20284,03	437,00
-20233,01	423,00
-20182,15	429,00
-20131,45	447,00
-20080,91	280,00
-20030,52	486,00
-19980,30	447,00
-19930,23	355,00
-19880,32	429,00
-19830,56	393,00
-19780,96	475,00
-19731,52	358,00
-19682,23	476,00
-19633,09	363,00
-19584,10	333,00
-19535,26	411,00
-19486,58	495,00
-19438,04	388,00
-19389,66	498,00
-19341,42	434,00
-19293,33	388,00
-19245,39	422,00
-19197,60	478,00
-19149,95	476,00
-19102,45	452,00
-19055,09	440,00
-19007,87	407,00
-18960,80	544,00
-18913,87	381,00
-18867,09	473,00
-18820,44	504,00
-18773,94	410,00
-18727,57	463,00
-18681,35	322,00
-18635,26	433,00
-18589,31	422,00
-18543,50	445,00
-18497,83	440,00
-18452,29	484,00
-18406,89	330,00
-18361,63	526,00
-18316,50	530,00
-18271,50	418,00
-18226,63	465,00
-18181,90	439,00
-18137,30	502,00
-18092,84	384,00
-18048,50	466,00
-18004,29	461,00
-17960,22	349,00
-17916,27	388,00
-17872,45	449,00
-17828,76	473,00
-17785,20	381,00
-17741,77	458,00
-17698,46	456,00
-17655,28	410,00
-17612,22	414,00
-17569,29	392,00
-17526,48	451,00
-17483,79	480,00
-17441,23	433,00
-17398,79	428,00
-17356,48	317,00
-17314,28	459,00
-17272,21	436,00
-17230,26	433,00
-17188,42	377,00
-17146,71	388,00
-17105,12	436,00
-17063,64	411,00
-17022,28	385,00
-16981,04	374,00
-16939,92	520,00
-16898,91	457,00
-16858,02	361,00
-16817,25	407,00
-16776,59	387,00
-16736,04	423,00
-16695,61	503,00
-16655,29	410,00
-16615,09	368,00
-16574,99	415,00
-16535,01	459,00
-16495,15	474,00
-16455,39	460,00
-16415,74	361,00
-16376,21	443,00
-16336,78	396,00
-16297,46	442,00
-16258,26	387,00
-16219,16	428,00
-16180,17	437,00
-16141,28	495,00
-16102,51	489,00
-16063,84	356,00
-16025,27	403,00
-15986,82	432,00
-15948,46	363,00
-15910,22	467,00
-15872,07	456,00
-15834,04	531,00
-15796,10	451,00
-15758,27	569,00
-15720,54	442,00
-15682,91	414,00
-15645,39	561,00
-15607,97	427,00
-15570,64	392,00
-15533,42	481,00
-15496,30	477,00
-15459,28	517,00
-15422,36	445,00
-15385,54	407,00
-15348,82	463,00
-15312,19	558,00
-15275,66	443,00
-15239,23	396,00
-15202,90	447,00
-15166,67	467,00
-15130,53	486,00
-15094,48	435,00
-15058,54	405,00
-15022,68	453,00
-14986,93	371,00
-14951,26	491,00
-14915,69	468,00
-14880,22	338,00
-14844,84	403,00
-14809,55	404,00
-14774,35	453,00
-14739,25	414,00
-14704,24	443,00
-14669,32	399,00
-14634,49	424,00
-14599,75	449,00
-14565,10	446,00
-14530,55	389,00
-14496,08	465,00
-14461,70	445,00
-14427,41	404,00
-14393,21	351,00
-14359,10	485,00
-14325,07	422,00
-14291,14	360,00
-14257,29	468,00
-14223,52	420,00
-14189,85	561,00
-14156,26	428,00
-14122,76	331,00
-14089,34	331,00
-14056,01	465,00
-14022,76	357,00
-13989,60	403,00
-13956,52	517,00
-13923,53	411,00
-13890,62	355,00
-13857,79	413,00
-13825,05	345,00
-13792,39	383,00
-13759,81	401,00
-13727,31	427,00
-13694,90	443,00
-13662,57	487,00
-13630,31	482,00
-13598,14	434,00
-13566,05	337,00
-13534,05	331,00
-13502,12	382,00
-13470,27	418,00
-13438,50	540,00
-13406,80	357,00
-13375,19	375,00
-13343,66	393,00
-13312,20	428,00
-13280,83	438,00
-13249,53	430,00
-13218,30	359,00
-13187,16	343,00
-13156,09	524,00
-13125,10	458,00
-13094,18	398,00
-13063,34	465,00
-13032,58	397,00
-13001,89	422,00
-12971,28	468,00
-12940,74	363,00
-12910,27	476,00
-12879,88	413,00
-12849,57	461,00
-12819,33	522,00
-12789,16	490,00
-12759,06	538,00
-12729,04	390,00
-12699,09	215,00
-12669,21	415,00
-12639,41	442,00
-12609,68	464,00
-12580,02	387,00
-12550,43	435,00
-12520,91	357,00
-12491,46	409,00
-12462,08	280,00
-12432,77	359,00
-12403,54	402,00
-12374,37	360,00
-12345,27	459,00
-12316,24	418,00
-12287,29	420,00
-12258,40	413,00
-12229,57	402,00
-12200,82	424,00
-12172,14	492,00
-12143,52	293,00
-12114,97	407,00
-12086,49	425,00
-12058,07	422,00
-12029,73	460,00
-12001,44	377,00
-11973,23	421,00
-11945,08	366,00
-11917,00	487,00
-11888,98	436,00
-11861,03	569,00
-11833,15	436,00
-11805,32	483,00
-11777,57	464,00
-11749,88	484,00
-11722,25	341,00
-11694,69	370,00
-11667,19	445,00
-11639,75	494,00
-11612,38	328,00
-11585,07	381,00
-11557,83	382,00
-11530,65	520,00
-11503,53	277,00
-11476,47	456,00
-11449,48	470,00
-11422,54	482,00
-11395,67	465,00
-11368,86	436,00
-11342,11	388,00
-11315,43	418,00
-11288,80	462,00
-11262,23	307,00
-11235,73	447,00
-11209,28	566,00
-11182,90	423,00
-11156,57	438,00
-11130,31	498,00
-11104,10	426,00
-11077,96	438,00
-11051,87	371,00
-11025,84	379,00
-10999,87	396,00
-10973,96	416,00
-10948,11	358,00
-10922,31	501,00
-10896,58	396,00
-10870,90	458,00
-10845,28	446,00
-10819,71	360,00
-10794,20	451,00
-10768,75	394,00
-10743,36	500,00
-10718,02	402,00
-10692,74	374,00
-10667,52	446,00
-10642,35	386,00
-10617,24	537,00
-10592,18	456,00
-10567,18	429,00
-10542,23	407,00
-10517,34	388,00
-10492,51	484,00
-10467,72	418,00
-10443,00	438,00
-10418,32	491,00
-10393,70	531,00
-10369,14	417,00
-10344,63	402,00
-10320,17	540,00
-10295,77	409,00
-10271,42	355,00
-10247,12	412,00
-10222,88	495,00
-10198,68	390,00
-10174,54	423,00
-10150,46	518,00
-10126,42	490,00
-10102,44	401,00
-10078,51	412,00
-10054,63	503,00
-10030,80	512,00
-10007,03	517,00
-9983,30	499,00
-9959,63	588,00
-9936,01	607,00
-9912,44	574,00
-9888,92	564,00
-9865,44	476,00
-9842,02	507,00
-9818,65	579,00
-9795,33	416,00
-9772,06	543,00
-9748,84	500,00
-9725,67	494,00
-9702,55	612,00
-9679,47	563,00
-9656,45	724,00
-9633,47	499,00
-9610,55	575,00
-9587,67	648,00
-9564,84	757,00
-9542,06	706,00
-9519,32	750,00
-9496,64	823,00
-9474,00	784,00
-9451,41	806,00
-9428,87	741,00
-9406,37	843,00
-9383,92	664,00
-9361,52	763,00
-9339,17	890,00
-9316,86	893,00
-9294,60	1103,00
-9272,38	960,00
-9250,21	1116,00
-9228,09	1125,00
-9206,01	1126,00
-9183,98	1052,00
-9162,00	875,00
-9140,06	1015,00
-9118,16	933,00
-9096,31	947,00
-9074,51	999,00
-9052,75	1099,00
-9031,04	1105,00
-9009,37	1049,00
-8987,74	955,00
-8966,16	965,00
-8944,63	784,00
-8923,14	918,00
-8901,69	857,00
-8880,29	786,00
-8858,93	832,00
-8837,61	933,00
-8816,34	1002,00
-8795,11	958,00
-8773,92	807,00
-8752,78	847,00
-8731,68	748,00
-8710,62	895,00
-8689,61	793,00
-8668,63	937,00
-8647,70	915,00
-8626,82	880,00
-8605,97	922,00
-8585,17	824,00
-8564,41	930,00
-8543,69	819,00
-8523,01	717,00
-8502,37	778,00
-8481,78	813,00
-8461,23	779,00
-8440,71	866,00
-8420,24	777,00
-8399,81	1020,00
-8379,42	830,00
-8359,08	851,00
-8338,77	778,00
-8318,50	651,00
-8298,27	585,00
-8278,09	799,00
-8257,94	777,00
-8237,83	818,00
-8217,76	837,00
-8197,74	810,00
-8177,75	715,00
-8157,80	702,00
-8137,89	713,00
-8118,02	623,00
-8098,19	819,00
-8078,40	709,00
-8058,65	679,00
-8038,93	803,00
-8019,26	761,00
-7999,62	789,00
-7980,02	783,00
-7960,46	694,00
-7940,94	584,00
-7921,46	705,00
-7902,01	624,00
-7882,60	737,00
-7863,23	699,00
-7843,90	603,00
-7824,61	643,00
-7805,35	782,00
-7786,13	690,00
-7766,95	803,00
-7747,80	672,00
-7728,69	695,00
-7709,62	649,00
-7690,59	702,00
-7671,59	819,00
-7652,63	670,00
-7633,70	692,00
-7614,81	810,00
-7595,96	672,00
-7577,15	574,00
-7558,37	528,00
-7539,62	593,00
-7520,91	638,00
-7502,24	645,00
-7483,60	615,00
-7465,00	582,00
-7446,44	700,00
-7427,91	522,00
-7409,41	545,00
-7390,95	539,00
-7372,53	581,00
-7354,14	535,00
-7335,78	529,00
-7317,46	466,00
-7299,18	504,00
-7280,92	605,00
-7262,71	747,00
-7244,52	680,00
-7226,38	546,00
-7208,26	619,00
-7190,18	556,00
-7172,14	588,00
-7154,12	565,00
-7136,15	565,00
-7118,20	733,00
-7100,29	629,00
-7082,41	675,00
-7064,57	520,00
-7046,76	692,00
-7028,98	484,00
-7011,24	616,00
-6993,53	482,00
-6975,85	570,00
-6958,20	545,00
-6940,59	511,00
-6923,01	453,00
-6905,46	617,00
-6887,94	544,00
-6870,46	-1559,00
-6853,01	625,00
-6835,59	546,00
-6818,21	520,00
-6800,85	561,00
-6783,53	492,00
-6766,24	482,00
-6748,98	591,00
-6731,76	487,00
-6714,56	441,00
-6697,40	476,00
-6680,26	442,00
-6663,16	464,00
-6646,09	554,00
-6629,05	674,00
-6612,05	554,00
-6595,07	434,00
-6578,13	478,00
-6561,21	448,00
-6544,33	561,00
-6527,47	400,00
-6510,65	454,00
-6493,86	356,00
-6477,10	429,00
-6460,36	452,00
-6443,66	417,00
-6426,99	431,00
-6410,35	501,00
-6393,74	528,00
-6377,16	427,00
-6360,61	455,00
-6344,09	445,00
-6327,59	456,00
-6311,13	564,00
-6294,70	563,00
-6278,29	417,00
-6261,92	482,00
-6245,58	585,00
-6229,26	512,00
-6212,97	522,00
-6196,72	423,00
-6180,49	423,00
-6164,29	390,00
-6148,12	564,00
-6131,98	503,00
-6115,86	399,00
-6099,78	540,00
-6083,72	486,00
-6067,69	409,00
-6051,69	411,00
-6035,72	471,00
-6019,78	546,00
-6003,87	587,00
-5987,98	502,00
-5972,12	423,00
-5956,29	472,00
-5940,49	361,00
-5924,71	616,00
-5908,96	438,00
-5893,24	421,00
-5877,55	441,00
-5861,89	585,00
-5846,25	326,00
-5830,64	442,00
-5815,05	446,00
-5799,50	423,00
-5783,97	465,00
-5768,47	400,00
-5752,99	499,00
-5737,55	381,00
-5722,12	457,00
-5706,73	559,00
-5691,36	508,00
-5676,02	390,00
-5660,71	426,00
-5645,42	401,00
-5630,16	434,00
-5614,92	523,00
-5599,71	399,00
-5584,53	456,00
-5569,37	445,00
-5554,24	1377,00
-5539,14	414,00
-5524,06	458,00
-5509,01	483,00
-5493,98	417,00
-5478,98	490,00
-5464,00	396,00
-5449,05	434,00
-5434,13	500,00
-5419,23	357,00
-5404,36	388,00
-5389,51	438,00
-5374,69	421,00
-5359,89	468,00
-5345,12	597,00
-5330,37	543,00
-5315,65	467,00
-5300,95	503,00
-5286,28	421,00
-5271,63	325,00
-5257,01	464,00
-5242,41	478,00
-5227,84	409,00
-5213,29	480,00
-5198,76	432,00
-5184,26	410,00
-5169,79	463,00
-5155,33	405,00
-5140,91	460,00
-5126,51	406,00
-5112,13	525,00
-5097,77	417,00
-5083,44	581,00
-5069,13	354,00
-5054,85	457,00
-5040,59	443,00
-5026,36	492,00
-5012,15	510,00
-4997,96	505,00
-4983,80	507,00
-4969,66	504,00
-4955,54	387,00
-4941,44	483,00
-4927,37	426,00
-4913,33	480,00
-4899,30	476,00
-4885,30	481,00
-4871,33	386,00
-4857,37	382,00
-4843,44	376,00
-4829,53	500,00
-4815,65	449,00
-4801,79	416,00
-4787,95	508,00
-4774,13	458,00
-4760,34	424,00
-4746,56	454,00
-4732,82	439,00
-4719,09	522,00
-4705,38	551,00
-4691,70	535,00
-4678,04	595,00
-4664,41	486,00
-4650,79	449,00
-4637,20	306,00
-4623,63	375,00
-4610,08	537,00
-4596,56	406,00
-4583,05	428,00
-4569,57	430,00
-4556,11	490,00
-4542,67	432,00
-4529,25	389,00
-4515,86	406,00
-4502,49	424,00
-4489,13	507,00
-4475,80	603,00
-4462,49	350,00
-4449,21	491,00
-4435,94	465,00
-4422,70	428,00
-4409,47	409,00
-4396,27	483,00
-4383,09	428,00
-4369,93	471,00
-4356,79	351,00
-4343,67	386,00
-4330,58	477,00
-4317,50	438,00
-4304,45	506,00
-4291,41	479,00
-4278,40	514,00
-4265,41	391,00
-4252,44	405,00
-4239,49	409,00
-4226,55	414,00
-4213,65	475,00
-4200,76	533,00
-4187,89	452,00
-4175,04	339,00
-4162,21	402,00
-4149,40	456,00
-4136,61	385,00
-4123,85	464,00
-4111,10	397,00
-4098,37	501,00
-4085,66	516,00
-4072,98	458,00
-4060,31	357,00
-4047,66	512,00
-4035,04	538,00
-4022,43	409,00
-4009,84	411,00
-3997,27	310,00
-3984,72	435,00
-3972,19	550,00
-3959,69	453,00
-3947,20	415,00
-3934,73	426,00
-3922,27	352,00
-3909,84	414,00
-3897,43	554,00
-3885,04	434,00
-3872,67	460,00
-3860,31	375,00
-3847,98	471,00
-3835,66	502,00
-3823,36	421,00
-3811,09	478,00
-3798,83	473,00
-3786,59	443,00
-3774,37	498,00
-3762,17	448,00
-3749,98	375,00
-3737,82	521,00
-3725,67	558,00
-3713,55	444,00
-3701,44	475,00
-3689,35	459,00
-3677,28	491,00
-3665,22	411,00
-3653,19	312,00
-3641,17	452,00
-3629,18	425,00
-3617,20	501,00
-3605,24	420,00
-3593,30	466,00
-3581,37	511,00
-3569,47	428,00
-3557,58	517,00
-3545,71	543,00
-3533,86	407,00
-3522,02	477,00
-3510,21	477,00
-3498,41	381,00
-3486,63	412,00
-3474,87	430,00
-3463,12	413,00
-3451,40	377,00
-3439,69	417,00
-3428,00	390,00
-3416,33	507,00
-3404,67	366,00
-3393,03	466,00
-3381,41	449,00
-3369,81	525,00
-3358,22	521,00
-3346,66	463,00
-3335,10	413,00
-3323,57	387,00
-3312,06	444,00
-3300,56	499,00
-3289,08	395,00
-3277,61	444,00
-3266,16	401,00
-3254,73	425,00
-3243,32	446,00
-3231,92	394,00
-3220,55	515,00
-3209,18	493,00
-3197,84	409,00
-3186,51	416,00
-3175,20	339,00
-3163,90	367,00
-3152,63	554,00
-3141,36	377,00
-3130,12	513,00
-3118,89	513,00
-3107,68	341,00
-3096,49	475,00
-3085,31	407,00
-3074,15	440,00
-3063,00	424,00
-3051,87	393,00
-3040,76	359,00
-3029,67	526,00
-3018,59	552,00
-3007,52	563,00
-2996,48	424,00
-2985,44	466,00
-2974,43	446,00
-2963,43	370,00
-2952,45	578,00
-2941,48	440,00
-2930,53	451,00
-2919,60	379,00
-2908,68	406,00
-2897,78	496,00
-2886,89	539,00
-2876,02	464,00
-2865,17	371,00
-2854,33	427,00
-2843,50	445,00
-2832,70	490,00
-2821,90	426,00
-2811,13	514,00
-2800,37	486,00
-2789,62	347,00
-2778,89	454,00
-2768,18	386,00
-2757,48	394,00
-2746,80	505,00
-2736,13	408,00
-2725,48	641,00
-2714,84	380,00
-2704,22	446,00
-2693,61	488,00
-2683,02	422,00
-2672,45	466,00
-2661,89	442,00
-2651,34	429,00
-2640,81	422,00
-2630,30	526,00
-2619,80	430,00
-2609,31	432,00
-2598,84	406,00
-2588,39	403,00
-2577,95	387,00
-2567,52	395,00
-2557,11	377,00
-2546,71	443,00
-2536,33	626,00
-2525,97	403,00
-2515,62	475,00
-2505,28	412,00
-2494,96	400,00
-2484,65	527,00
-2474,36	634,00
-2464,08	334,00
-2453,82	550,00
-2443,57	451,00
-2433,33	367,00
-2423,11	502,00
-2412,91	513,00
-2402,72	447,00
-2392,54	350,00
-2382,38	447,00
-2372,23	495,00
-2362,09	-2523,00
-2351,97	429,00
-2341,87	374,00
-2331,78	428,00
-2321,70	489,00
-2311,64	465,00
-2301,59	544,00
-2291,55	401,00
-2281,53	515,00
-2271,53	392,00
-2261,53	426,00
-2251,55	409,00
-2241,59	471,00
-2231,64	415,00
-2221,70	401,00
-2211,78	422,00
-2201,87	504,00
-2191,97	461,00
-2182,09	480,00
-2172,22	438,00
-2162,37	375,00
-2152,53	342,00
-2142,70	432,00
-2132,89	467,00
-2123,09	451,00
-2113,30	493,00
-2103,53	485,00
-2093,77	441,00
-2084,02	433,00
-2074,29	476,00
-2064,57	466,00
-2054,86	507,00
-2045,17	510,00
-2035,49	388,00
-2025,82	343,00
-2016,17	521,00
-2006,53	414,00
-1996,91	432,00
-1987,29	371,00
-1977,69	469,00
-1968,11	471,00
-1958,53	381,00
-1948,97	396,00
-1939,42	448,00
-1929,89	440,00
-1920,37	414,00
-1910,86	462,00
-1901,36	408,00
-1891,88	434,00
-1882,41	446,00
-1872,95	519,00
-1863,51	465,00
-1854,08	409,00
-1844,66	456,00
-1835,26	555,00
-1825,86	455,00
-1816,48	385,00
-1807,11	481,00
-1797,76	464,00
-1788,42	454,00
-1779,09	493,00
-1769,77	473,00
-1760,47	533,00
-1751,17	442,00
-1741,89	395,00
-1732,63	466,00
-1723,37	541,00
-1714,13	456,00
-1704,90	420,00
-1695,68	488,00
-1686,48	297,00
-1677,29	400,00
-1668,11	546,00
-1658,94	396,00
-1649,78	451,00
-1640,64	483,00
-1631,51	407,00
-1622,39	517,00
-1613,28	413,00
-1604,19	575,00
-1595,10	412,00
-1586,03	445,00
-1576,97	464,00
-1567,93	451,00
-1558,89	425,00
-1549,87	444,00
-1540,86	372,00
-1531,86	466,00
-1522,87	366,00
-1513,90	478,00
-1504,93	514,00
-1495,98	474,00
-1487,04	436,00
-1478,12	409,00
-1469,20	445,00
-1460,30	457,00
-1451,40	561,00
-1442,52	499,00
-1433,65	563,00
-1424,80	378,00
-1415,95	412,00
-1407,12	648,00
-1398,30	435,00
-1389,48	424,00
-1380,69	360,00
-1371,90	375,00
-1363,12	508,00
-1354,36	436,00
-1345,60	427,00
-1336,86	438,00
-1328,13	564,00
-1319,41	481,00
-1310,70	371,00
-1302,01	468,00
-1293,32	326,00
-1284,65	462,00
-1275,99	508,00
-1267,33	571,00
-1258,69	517,00
-1250,06	494,00
-1241,45	412,00
-1232,84	478,00
-1224,25	468,00
-1215,66	417,00
-1207,09	502,00
-1198,53	420,00
-1189,97	474,00
-1181,43	373,00
-1172,91	395,00
-1164,39	524,00
-1155,88	366,00
-1147,38	352,00
-1138,90	476,00
-1130,43	437,00
-1121,96	367,00
-1113,51	364,00
-1105,07	530,00
-1096,64	540,00
-1088,22	428,00
-1079,81	528,00
-1071,41	496,00
-1063,02	403,00
-1054,65	494,00
-1046,28	507,00
-1037,92	471,00
-1029,58	449,00
-1021,24	568,00
-1012,92	521,00
-1004,61	467,00
-996,30	632,00
-988,01	347,00
-979,73	478,00
-971,46	517,00
-963,20	391,00
-954,95	376,00
-946,71	480,00
-938,48	496,00
-930,26	549,00
-922,06	436,00
-913,86	422,00
-905,67	422,00
-897,49	516,00
-889,33	367,00
-881,17	523,00
-873,02	501,00
-864,89	408,00
-856,76	460,00
-848,65	479,00
-840,54	548,00
-832,45	457,00
-824,36	407,00
-816,29	414,00
-808,22	479,00
-800,17	507,00
-792,12	432,00
-784,09	427,00
-776,06	431,00
-768,05	449,00
-760,04	420,00
-752,05	445,00
-744,07	411,00
-736,09	453,00
-728,13	360,00
-720,17	452,00
-712,23	409,00
-704,29	353,00
-696,37	430,00
-688,45	519,00
-680,55	376,00
-672,65	447,00
-664,77	453,00
-656,89	413,00
-649,03	404,00
-641,17	431,00
-633,32	538,00
-625,49	502,00
-617,66	470,00
-609,84	512,00
-602,03	413,00
-594,23	502,00
-586,45	504,00
-578,67	397,00
-570,90	461,00
-563,14	365,00
-555,39	425,00
-547,65	467,00
-539,91	434,00
-532,19	452,00
-524,48	505,00
-516,78	416,00
-509,08	527,00
-501,40	455,00
-493,72	468,00
-486,06	476,00
-478,40	470,00
-470,76	357,00
-463,12	448,00
-455,49	460,00
-447,87	431,00
-440,26	446,00
-432,66	400,00
-425,07	448,00
-417,49	535,00
-409,92	416,00
-402,35	426,00
-394,80	395,00
-387,25	482,00
-379,72	509,00
-372,19	475,00
-364,67	564,00
-357,17	449,00
-349,67	515,00
-342,18	478,00
-334,69	496,00
-327,22	515,00
-319,76	494,00
-312,30	449,00
-304,86	423,00
-297,42	447,00
-290,00	425,00
-282,58	450,00
-275,17	496,00
-267,77	539,00
-260,37	436,00
-252,99	544,00
-245,62	565,00
-238,25	443,00
-230,90	505,00
-223,55	503,00
-216,21	494,00
-208,88	614,00
-201,56	540,00
-194,25	514,00
-186,94	638,00
-179,65	540,00
-172,36	633,00
-165,08	656,00
-157,81	746,00
-150,55	724,00
-143,30	690,00
-136,06	783,00
-128,82	804,00
-121,60	790,00
-114,38	956,00
-107,17	998,00
-99,97	1087,00
-92,78	1119,00
-85,60	1152,00
-78,42	1416,00
-71,25	1493,00
-64,10	1686,00
-56,95	1772,00
-49,81	2056,00
-42,67	2608,00
-35,55	3005,00
-28,43	4033,00
-21,33	6255,00
-14,23	19170,00
-7,14	57498,00
-0,05	57284,00
7,02	57012,00
14,09	57319,00
21,14	16943,00
28,19	7348,00
35,23	4780,00
42,27	3942,00
49,29	3236,00
56,31	2728,00
63,32	2552,00
70,32	2147,00
77,31	1913,00
84,29	1692,00
91,27	1583,00
98,23	1479,00
105,19	1466,00
112,14	1808,00
119,09	3207,00
126,02	5391,00
132,95	6662,00
139,87	7153,00
146,78	7276,00
153,68	7414,00
160,58	7376,00
167,46	7199,00
174,34	7347,00
181,21	7350,00
188,08	7232,00
194,93	7376,00
201,78	7236,00
208,62	7442,00
215,45	7569,00
222,27	7386,00
229,09	7525,00
235,90	7446,00
242,70	7420,00
249,49	7421,00
256,27	7357,00
263,05	7353,00
269,82	7437,00
276,58	7362,00
283,33	7342,00
290,08	7298,00
296,82	7212,00
303,55	7108,00
310,27	7085,00
316,98	7040,00
323,69	7196,00
330,39	7027,00
337,08	7080,00
343,76	7154,00
350,44	7205,00
357,11	7084,00
363,77	7048,00
370,42	7027,00
377,07	7086,00
383,71	7086,00
390,34	7108,00
396,96	7010,00
403,58	7127,00
410,19	7227,00
416,79	7202,00
423,38	7230,00
429,97	7143,00
436,55	6887,00
443,12	6897,00
449,68	6909,00
456,24	6859,00
462,79	6848,00
469,33	6694,00
475,86	6914,00
482,39	6676,00
488,91	6896,00
495,42	6675,00
501,93	6745,00
508,42	6575,00
514,91	6545,00
521,40	6596,00
527,87	6474,00
534,34	6412,00
540,80	6456,00
547,25	6473,00
553,70	6572,00
560,14	6572,00
566,57	6564,00
573,00	6468,00
579,41	6424,00
585,83	6580,00
592,23	6503,00
598,62	6490,00
605,01	6371,00
611,40	6573,00
617,77	6434,00
624,14	6358,00
630,50	6332,00
636,85	6320,00
643,20	6340,00
649,54	6234,00
655,87	6193,00
662,20	6147,00
668,52	6152,00
674,83	6332,00
681,13	6174,00
687,43	6148,00
693,72	6061,00
700,00	6116,00
706,28	6128,00
712,55	6061,00
718,81	5987,00
725,07	5976,00
731,32	6012,00
737,56	6113,00
743,79	6040,00
750,02	6042,00
756,24	5933,00
762,46	5944,00
768,67	6144,00
774,87	6082,00
781,06	5938,00
787,25	6064,00
793,43	6001,00
799,60	5957,00
805,77	6015,00
811,93	5963,00
818,08	5965,00
824,23	5963,00
830,37	6019,00
836,50	5872,00
842,63	5789,00
848,75	5914,00
854,87	5787,00
860,97	5814,00
867,07	5818,00
873,17	5694,00
879,25	5615,00
885,33	5649,00
891,41	5757,00
897,47	5658,00
903,53	5760,00
909,59	5776,00
915,63	5639,00
921,67	5510,00
927,71	5696,00
933,74	5688,00
939,76	5498,00
945,77	5609,00
951,78	5661,00
957,78	5709,00
963,78	5468,00
969,77	5588,00
975,75	5525,00
981,72	5630,00
987,69	6180,00
993,66	5664,00
999,61	5570,00
1005,56	5525,00
1011,51	5586,00
1017,44	5515,00
1023,37	5598,00
1029,30	5579,00
1035,22	5592,00
1041,13	5635,00
1047,03	5726,00
1052,93	5648,00
1058,83	5818,00
1064,71	5857,00
1070,59	5760,00
1076,47	5503,00
1082,33	5659,00
1088,20	5496,00
1094,05	5544,00
1099,90	5261,00
1105,74	5517,00
1111,58	5529,00
1117,41	5383,00
1123,23	5501,00
1129,05	5680,00
1134,86	5679,00
1140,67	5527,00
1146,47	5352,00
1152,26	5436,00
1158,05	5326,00
1163,83	5371,00
1169,60	5432,00
1175,37	5354,00
1181,13	5388,00
1186,89	5432,00
1192,64	5428,00
1198,38	5590,00
1204,12	5305,00
1209,85	5358,00
1215,58	5311,00
1221,30	5423,00
1227,02	5454,00
1232,72	5419,00
1238,43	5329,00
1244,12	5269,00
1249,81	5420,00
1255,50	5564,00
1261,17	5515,00
1266,85	5399,00
1272,51	5413,00
1278,17	5482,00
1283,83	5435,00
1289,47	5691,00
1295,12	5920,00
1300,75	5836,00
1306,38	5713,00
1312,01	5522,00
1317,63	5436,00
1323,24	5305,00
1328,85	5342,00
1334,45	5423,00
1340,04	5323,00
1345,63	5310,00
1351,22	5442,00
1356,80	5388,00
1362,37	5621,00
1367,93	5533,00
1373,49	5589,00
1379,05	5475,00
1384,60	5477,00
1390,14	5438,00
1395,68	5446,00
1401,21	5520,00
1406,74	5497,00
1412,26	5658,00
1417,77	5625,00
1423,28	5570,00
1428,78	5710,00
1434,28	5771,00
1439,77	6006,00
1445,26	5960,00
1450,74	5904,00
1456,22	5830,00
1461,68	5645,00
1467,15	5583,00
1472,61	5453,00
1478,06	5520,00
1483,51	5388,00
1488,95	5307,00
1494,38	5258,00
1499,81	5239,00
1505,24	5224,00
1510,65	5305,00
1516,07	5063,00
1521,48	5024,00
1526,88	4973,00
1532,27	4982,00
1537,67	5060,00
1543,05	5020,00
1548,43	4906,00
1553,81	5151,00
1559,18	4851,00
1564,54	4941,00
1569,90	4958,00
1575,25	4877,00
1580,60	4849,00
1585,94	4931,00
1591,28	4974,00
1596,61	4980,00
1601,93	4934,00
1607,25	4812,00
1612,57	4950,00
1617,88	4698,00
1623,18	4840,00
1628,48	4799,00
1633,77	4751,00
1639,06	4724,00
1644,34	4754,00
1649,62	4652,00
1654,89	4775,00
1660,16	4659,00
1665,42	4775,00
1670,67	4650,00
1675,92	4545,00
1681,17	4525,00
1686,41	4532,00
1691,64	4599,00
1696,87	4560,00
1702,10	4544,00
1707,32	4520,00
1712,53	4498,00
1717,74	4421,00
1722,94	4512,00
1728,14	4401,00
1733,33	4266,00
1738,52	4264,00
1743,70	4349,00
1748,88	4281,00
1754,05	4259,00
1759,22	4155,00
1764,38	4329,00
1769,53	4285,00
1774,69	4208,00
1779,83	4121,00
1784,97	4179,00
1790,11	4206,00
1795,24	3988,00
1800,36	4087,00
1805,48	3966,00
1810,60	4098,00
1815,71	4111,00
1820,82	4003,00
1825,92	4071,00
1831,01	4058,00
1836,10	4023,00
1841,19	4043,00
1846,26	4033,00
1851,34	4042,00
1856,41	3924,00
1861,47	3983,00
1866,53	4132,00
1871,59	4010,00
1876,64	4048,00
1881,68	4056,00
1886,72	3882,00
1891,76	3876,00
1896,79	3873,00
1901,81	3685,00
1906,83	3844,00
1911,85	3880,00
1916,86	3737,00
1921,86	3727,00
1926,86	3636,00
1931,86	3705,00
1936,85	3675,00
1941,83	3559,00
1946,81	3596,00
1951,79	3486,00
1956,76	3520,00
1961,72	3535,00
1966,68	3521,00
1971,64	3497,00
1976,59	3529,00
1981,54	3481,00
1986,48	3511,00
1991,42	3378,00
1996,35	3487,00
2001,27	3495,00
2006,20	3330,00
2011,11	3472,00
2016,03	3399,00
2020,93	3302,00
2025,84	3410,00
2030,73	3401,00
2035,63	3312,00
2040,52	3378,00
2045,40	3418,00
2050,28	3339,00
2055,15	3247,00
2060,02	3178,00
2064,89	3381,00
2069,75	3324,00
2074,60	3222,00
2079,46	3050,00
2084,30	3243,00
2089,14	3119,00
2093,98	3283,00
2098,81	3164,00
2103,64	3223,00
2108,46	3210,00
2113,28	3295,00
2118,09	3152,00
2122,90	3152,00
2127,70	3171,00
2132,50	3149,00
2137,30	3117,00
2142,09	3005,00
2146,87	3095,00
2151,66	3062,00
2156,43	3109,00
2161,20	3037,00
2165,97	3076,00
2170,73	3034,00
2175,49	2994,00
2180,24	3005,00
2184,99	3029,00
2189,74	3146,00
2194,48	3027,00
2199,21	3013,00
2203,94	2940,00
2208,67	2891,00
2213,39	2740,00
2218,11	2904,00
2222,82	2834,00
2227,53	2908,00
2232,23	2865,00
2236,93	2847,00
2241,63	2793,00
2246,32	2868,00
2251,00	2871,00
2255,68	2749,00
2260,36	2760,00
2265,03	2844,00
2269,70	2887,00
2274,36	2744,00
2279,02	2814,00
2283,68	2733,00
2288,33	2703,00
2292,97	2800,00
2297,61	2713,00
2302,25	2662,00
2306,88	2735,00
2311,51	2645,00
2316,14	2609,00
2320,75	2623,00
2325,37	2597,00
2329,98	2638,00
2334,59	2665,00
2339,19	2476,00
2343,79	2556,00
2348,38	2593,00
2352,97	2485,00
2357,55	2565,00
2362,13	2520,00
2366,71	2508,00
2371,28	2544,00
2375,85	2408,00
2380,41	2403,00
2384,97	2349,00
2389,52	2463,00
2394,07	2331,00
2398,62	2400,00
2403,16	2428,00
2407,70	2272,00
2412,23	2310,00
2416,76	2490,00
2421,29	2353,00
2425,81	2431,00
2430,32	2338,00
2434,84	2228,00
2439,34	2221,00
2443,85	2325,00
2448,35	2174,00
2452,84	2210,00
2457,33	2263,00
2461,82	2184,00
2466,30	2216,00
2470,78	2178,00
2475,25	2219,00
2479,72	2136,00
2484,19	2113,00
2488,65	2250,00
2493,11	2179,00
2497,56	2213,00
2502,01	2021,00
2506,46	2072,00
2510,90	1978,00
2515,34	1993,00
2519,77	2028,00
2524,20	2092,00
2528,62	2034,00
2533,04	2136,00
2537,46	1895,00
2541,87	2056,00
2546,28	1996,00
2550,68	2083,00
2555,08	2060,00
2559,48	1999,00
2563,87	1871,00
2568,26	1888,00
2572,64	1996,00
2577,02	1943,00
2581,40	1786,00
2585,77	1901,00
2590,14	1855,00
2594,50	1783,00
2598,86	1950,00
2603,22	1767,00
2607,57	1753,00
2611,92	1801,00
2616,26	1914,00
2620,60	1798,00
2624,94	1735,00
2629,27	1831,00
2633,60	1687,00
2637,92	1825,00
2642,24	1768,00
2646,56	1753,00
2650,87	1664,00
2655,18	1814,00
2659,48	1572,00
2663,78	1664,00
2668,08	1644,00
2672,37	1679,00
2676,66	1682,00
2680,95	1592,00
2685,23	1762,00
2689,50	1709,00
2693,78	1692,00
2698,05	1669,00
2702,31	1615,00
2706,57	1696,00
2710,83	1779,00
2715,08	1637,00
2719,33	1675,00
2723,58	1756,00
2727,82	1640,00
2732,06	1639,00
2736,29	1703,00
2740,53	1684,00
2744,75	1638,00
2748,97	1606,00
2753,19	1630,00
2757,41	1579,00
2761,62	1649,00
2765,83	1581,00
2770,03	1644,00
2774,23	1622,00
2778,43	1482,00
2782,62	1577,00
2786,81	1546,00
2791,00	1502,00
2795,18	1488,00
2799,35	1614,00
2803,53	1594,00
2807,70	1540,00
2811,86	1553,00
2816,03	1608,00
2820,19	1595,00
2824,34	1506,00
2828,49	1569,00
2832,64	1598,00
2836,78	1615,00
2840,92	1678,00
2845,06	1927,00
2849,19	1991,00
2853,32	2032,00
2857,45	1959,00
2861,57	1932,00
2865,69	1941,00
2869,80	1895,00
2873,91	1982,00
2878,02	1944,00
2882,12	1965,00
2886,22	2037,00
2890,32	1809,00
2894,41	1887,00
2898,50	1839,00
2902,58	1859,00
2906,67	1753,00
2910,74	1624,00
2914,82	1640,00
2918,89	1664,00
2922,96	1531,00
2927,02	1493,00
2931,08	1540,00
2935,13	1360,00
2939,19	1418,00
2943,24	1378,00
2947,28	1425,00
2951,32	1293,00
2955,36	1245,00
2959,40	1349,00
2963,43	1312,00
2967,46	1266,00
2971,48	1348,00
2975,50	1202,00
2979,52	1208,00
2983,53	1170,00
2987,54	1134,00
2991,55	1122,00
2995,55	1273,00
2999,55	1125,00
3003,54	1040,00
3007,54	1148,00
3011,53	1086,00
3015,51	1090,00
3019,49	1033,00
3023,47	1078,00
3027,45	1094,00
3031,42	1014,00
3035,39	1000,00
3039,35	1015,00
3043,31	1039,00
3047,27	1107,00
3051,22	960,00
3055,17	977,00
3059,12	1011,00
3063,06	952,00
3067,00	966,00
3070,94	912,00
3074,87	980,00
3078,80	1014,00
3082,73	967,00
3086,65	1030,00
3090,57	903,00
3094,49	919,00
3098,40	860,00
3102,31	922,00
3106,22	901,00
3110,12	932,00
3114,02	853,00
3117,92	866,00
3121,81	928,00
3125,70	887,00
3129,58	889,00
3133,47	792,00
3137,34	927,00
3141,22	851,00
3145,09	878,00
3148,96	921,00
3152,83	897,00
3156,69	904,00
3160,55	784,00
3164,40	930,00
3168,26	942,00
3172,10	957,00
3175,95	797,00
3179,79	873,00
3183,63	927,00
3187,47	803,00
3191,30	789,00
3195,13	816,00
3198,95	759,00
3202,78	839,00
3206,60	761,00
3210,41	702,00
3214,23	717,00
3218,03	770,00
3221,84	749,00
3225,64	749,00
3229,44	719,00
3233,24	783,00
3237,03	735,00
3240,82	686,00
3244,61	705,00
3248,39	714,00
3252,17	797,00
3255,95	816,00
3259,72	751,00
3263,49	770,00
3267,26	686,00
3271,03	794,00
3274,79	631,00
3278,54	739,00
3282,30	680,00
3286,05	737,00
3289,80	731,00
3293,54	728,00
3297,29	704,00
3301,02	647,00
3304,76	660,00
3308,49	725,00
3312,22	638,00
3315,95	659,00
3319,67	573,00
3323,39	746,00
3327,10	624,00
3330,82	615,00
3334,53	635,00
3338,24	724,00
3341,94	661,00
3345,64	673,00
3349,34	654,00
3353,03	629,00
3356,72	691,00
3360,41	589,00
3364,10	643,00
3367,78	610,00
3371,46	620,00
3375,13	607,00
3378,81	619,00
3382,48	597,00
3386,14	695,00
3389,81	699,00
3393,47	576,00
3397,12	658,00
3400,78	576,00
3404,43	590,00
3408,08	666,00
3411,72	476,00
3415,36	536,00
3419,00	639,00
3422,64	586,00
3426,27	589,00
3429,90	558,00
3433,53	558,00
3437,15	570,00
3440,77	478,00
3444,39	522,00
3448,00	537,00
3451,62	549,00
3455,22	592,00
3458,83	493,00
3462,43	537,00
3466,03	605,00
3469,63	490,00
3473,22	499,00
3476,81	520,00
3480,40	587,00
3483,99	529,00
3487,57	444,00
3491,15	551,00
3494,72	655,00
3498,29	590,00
3501,86	435,00
3505,43	517,00
3508,99	495,00
3512,56	424,00
3516,11	528,00
3519,67	516,00
3523,22	485,00
3526,77	468,00
3530,32	697,00
3533,86	565,00
3537,40	626,00
3540,94	513,00
3544,47	500,00
3548,00	498,00
3551,53	556,00
3555,06	470,00
3558,58	524,00
3562,10	557,00
3565,62	329,00
3569,13	438,00
3572,64	606,00
3576,15	462,00
3579,66	417,00
3583,16	393,00
3586,66	485,00
3590,16	456,00
3593,65	471,00
3597,14	396,00
3600,63	467,00
3604,11	487,00
3607,60	462,00
3611,08	508,00
3614,55	468,00
3618,03	419,00
3621,50	468,00
3624,97	417,00
3628,43	415,00
3631,90	442,00
3635,36	406,00
3638,81	387,00
3642,27	426,00
3645,72	417,00
3649,17	369,00
3652,61	451,00
3656,06	509,00
3659,50	419,00
3662,93	441,00
3666,37	520,00
3669,80	600,00
3673,23	481,00
3676,65	421,00
3680,08	458,00
3683,50	467,00
3686,92	372,00
3690,33	461,00
3693,74	383,00
3697,15	442,00
3700,56	489,00
3703,96	410,00
3707,36	317,00
3710,76	421,00
3714,16	424,00
3717,55	382,00
3720,94	352,00
3724,33	394,00
3727,71	343,00
3731,10	405,00
3734,48	455,00
3737,85	342,00
3741,23	358,00
3744,60	419,00
3747,97	268,00
3751,33	433,00
3754,69	408,00
3758,05	402,00
3761,41	355,00
3764,77	353,00
3768,12	387,00
3771,47	347,00
3774,82	369,00
3778,16	-7,00
3781,50	8,00
3784,84	1,00
3788,18	10,00
>>>>>End Processed Spectral Data<<<<<
