SpectraSuite Data File
++++++++++++++++++++++++++++++++++++
Date: Mon Jan 05 16:29:25 ICT 2026
User: Administrator
Dark Spectrum Present: Yes
Reference Spectrum Present: No
Number of Sampled Component Spectra: 1
Spectrometers: MAYP113682
Integration Time (usec): 3000000 (MAYP113682)
Spectra Averaged: 1 (MAYP113682)
Boxcar Smoothing: 0 (MAYP113682)
Correct for Electrical Dark: No (MAYP113682)
Strobe/Lamp Enabled: No (MAYP113682)
Correct for Detector Non-linearity: No (MAYP113682)
Correct for Stray Light: No (MAYP113682)
Number of Pixels in Processed Spectrum: 2068
>>>>>Begin Processed Spectral Data<<<<<
-37534,58	20,00
-37414,56	12,00
-37295,11	4,00
-37176,24	2,00
-37057,95	484,00
-36940,22	530,00
-36823,05	480,00
-36706,45	561,00
-36590,40	600,00
-36474,90	578,00
-36359,95	563,00
-36245,55	647,00
-36131,68	505,00
-36018,35	550,00
-35905,55	501,00
-35793,29	620,00
-35681,54	522,00
-35570,32	603,00
-35459,62	615,00
-35349,43	672,00
-35239,75	648,00
-35130,58	577,00
-35021,91	630,00
-34913,74	616,00
-34806,07	600,00
-34698,89	680,00
-34592,20	674,00
-34486,00	613,00
-34380,28	654,00
-34275,04	589,00
-34170,27	536,00
-34065,98	746,00
-33962,16	645,00
-33858,81	662,00
-33755,92	555,00
-33653,49	768,00
-33551,52	746,00
-33450,01	669,00
-33348,94	663,00
-33248,33	560,00
-33148,16	665,00
-33048,43	642,00
-32949,14	738,00
-32850,29	689,00
-32751,87	623,00
-32653,89	731,00
-32556,33	690,00
-32459,20	490,00
-32362,49	687,00
-32266,19	561,00
-32170,32	614,00
-32074,86	710,00
-31979,82	723,00
-31885,18	656,00
-31790,95	701,00
-31697,12	707,00
-31603,69	628,00
-31510,67	759,00
-31418,04	696,00
-31325,80	666,00
-31233,95	612,00
-31142,49	694,00
-31051,42	632,00
-30960,73	777,00
-30870,43	747,00
-30780,50	777,00
-30690,95	698,00
-30601,77	726,00
-30512,97	689,00
-30424,53	718,00
-30336,46	681,00
-30248,76	682,00
-30161,42	726,00
-30074,44	673,00
-29987,81	722,00
-29901,55	772,00
-29815,63	612,00
-29730,07	681,00
-29644,86	656,00
-29560,00	776,00
-29475,48	686,00
-29391,30	726,00
-29307,47	659,00
-29223,97	671,00
-29140,81	666,00
-29057,99	723,00
-28975,50	554,00
-28893,34	734,00
-28811,51	603,00
-28730,00	740,00
-28648,82	648,00
-28567,97	752,00
-28487,43	623,00
-28407,21	681,00
-28327,32	622,00
-28247,73	848,00
-28168,46	636,00
-28089,50	698,00
-28010,85	619,00
-27932,51	639,00
-27854,48	644,00
-27776,75	570,00
-27699,32	715,00
-27622,19	716,00
-27545,37	710,00
-27468,84	595,00
-27392,60	748,00
-27316,66	697,00
-27241,01	618,00
-27165,66	695,00
-27090,59	616,00
-27015,81	699,00
-26941,31	726,00
-26867,10	618,00
-26793,17	790,00
-26719,52	622,00
-26646,15	677,00
-26573,06	636,00
-26500,24	658,00
-26427,70	673,00
-26355,43	628,00
-26283,43	680,00
-26211,71	649,00
-26140,25	725,00
-26069,06	693,00
-25998,13	598,00
-25927,46	618,00
-25857,06	610,00
-25786,92	628,00
-25717,04	563,00
-25647,42	727,00
-25578,05	559,00
-25508,94	689,00
-25440,09	709,00
-25371,48	717,00
-25303,13	704,00
-25235,02	666,00
-25167,17	647,00
-25099,56	657,00
-25032,19	615,00
-24965,07	592,00
-24898,20	569,00
-24831,56	564,00
-24765,17	691,00
-24699,01	560,00
-24633,10	744,00
-24567,41	709,00
-24501,97	603,00
-24436,75	612,00
-24371,77	683,00
-24307,03	644,00
-24242,51	701,00
-24178,22	606,00
-24114,16	630,00
-24050,32	734,00
-23986,71	655,00
-23923,32	679,00
-23860,16	698,00
-23797,22	651,00
-23734,50	641,00
-23672,00	561,00
-23609,71	576,00
-23547,65	543,00
-23485,80	714,00
-23424,16	522,00
-23362,74	772,00
-23301,53	667,00
-23240,54	567,00
-23179,75	583,00
-23119,17	578,00
-23058,80	546,00
-22998,64	682,00
-22938,68	603,00
-22878,93	696,00
-22819,39	578,00
-22760,04	670,00
-22700,90	641,00
-22641,96	623,00
-22583,22	638,00
-22524,68	666,00
-22466,33	591,00
-22408,19	706,00
-22350,23	645,00
-22292,48	621,00
-22234,92	616,00
-22177,55	701,00
-22120,37	777,00
-22063,38	599,00
-22006,58	664,00
-21949,98	642,00
-21893,56	510,00
-21837,33	679,00
-21781,28	611,00
-21725,42	761,00
-21669,74	680,00
-21614,25	573,00
-21558,94	712,00
-21503,81	600,00
-21448,86	723,00
-21394,10	652,00
-21339,51	628,00
-21285,10	586,00
-21230,86	653,00
-21176,81	567,00
-21122,93	610,00
-21069,22	554,00
-21015,69	620,00
-20962,33	688,00
-20909,14	607,00
-20856,13	683,00
-20803,28	707,00
-20750,61	704,00
-20698,10	638,00
-20645,76	630,00
-20593,59	750,00
-20541,59	707,00
-20489,75	667,00
-20438,07	569,00
-20386,56	715,00
-20335,22	606,00
-20284,03	645,00
-20233,01	642,00
-20182,15	630,00
-20131,45	632,00
-20080,91	537,00
-20030,52	660,00
-19980,30	534,00
-19930,23	558,00
-19880,32	658,00
-19830,56	593,00
-19780,96	671,00
-19731,52	652,00
-19682,23	661,00
-19633,09	637,00
-19584,10	567,00
-19535,26	569,00
-19486,58	792,00
-19438,04	582,00
-19389,66	727,00
-19341,42	617,00
-19293,33	601,00
-19245,39	645,00
-19197,60	688,00
-19149,95	660,00
-19102,45	706,00
-19055,09	612,00
-19007,87	647,00
-18960,80	670,00
-18913,87	642,00
-18867,09	600,00
-18820,44	795,00
-18773,94	712,00
-18727,57	681,00
-18681,35	600,00
-18635,26	675,00
-18589,31	622,00
-18543,50	572,00
-18497,83	680,00
-18452,29	640,00
-18406,89	490,00
-18361,63	646,00
-18316,50	661,00
-18271,50	655,00
-18226,63	765,00
-18181,90	707,00
-18137,30	711,00
-18092,84	634,00
-18048,50	700,00
-18004,29	630,00
-17960,22	688,00
-17916,27	640,00
-17872,45	717,00
-17828,76	818,00
-17785,20	558,00
-17741,77	705,00
-17698,46	682,00
-17655,28	678,00
-17612,22	711,00
-17569,29	594,00
-17526,48	630,00
-17483,79	776,00
-17441,23	662,00
-17398,79	636,00
-17356,48	543,00
-17314,28	778,00
-17272,21	661,00
-17230,26	653,00
-17188,42	680,00
-17146,71	647,00
-17105,12	673,00
-17063,64	631,00
-17022,28	556,00
-16981,04	553,00
-16939,92	634,00
-16898,91	782,00
-16858,02	579,00
-16817,25	636,00
-16776,59	648,00
-16736,04	628,00
-16695,61	583,00
-16655,29	636,00
-16615,09	545,00
-16574,99	642,00
-16535,01	675,00
-16495,15	681,00
-16455,39	666,00
-16415,74	570,00
-16376,21	530,00
-16336,78	599,00
-16297,46	557,00
-16258,26	613,00
-16219,16	587,00
-16180,17	667,00
-16141,28	724,00
-16102,51	634,00
-16063,84	582,00
-16025,27	658,00
-15986,82	621,00
-15948,46	669,00
-15910,22	598,00
-15872,07	677,00
-15834,04	658,00
-15796,10	536,00
-15758,27	808,00
-15720,54	646,00
-15682,91	630,00
-15645,39	752,00
-15607,97	694,00
-15570,64	640,00
-15533,42	728,00
-15496,30	687,00
-15459,28	723,00
-15422,36	555,00
-15385,54	616,00
-15348,82	633,00
-15312,19	731,00
-15275,66	591,00
-15239,23	728,00
-15202,90	649,00
-15166,67	672,00
-15130,53	768,00
-15094,48	725,00
-15058,54	555,00
-15022,68	681,00
-14986,93	597,00
-14951,26	702,00
-14915,69	746,00
-14880,22	627,00
-14844,84	627,00
-14809,55	686,00
-14774,35	612,00
-14739,25	606,00
-14704,24	698,00
-14669,32	607,00
-14634,49	529,00
-14599,75	671,00
-14565,10	605,00
-14530,55	635,00
-14496,08	689,00
-14461,70	742,00
-14427,41	552,00
-14393,21	554,00
-14359,10	564,00
-14325,07	650,00
-14291,14	563,00
-14257,29	662,00
-14223,52	597,00
-14189,85	707,00
-14156,26	636,00
-14122,76	559,00
-14089,34	559,00
-14056,01	668,00
-14022,76	575,00
-13989,60	622,00
-13956,52	830,00
-13923,53	618,00
-13890,62	642,00
-13857,79	613,00
-13825,05	559,00
-13792,39	563,00
-13759,81	681,00
-13727,31	626,00
-13694,90	675,00
-13662,57	719,00
-13630,31	679,00
-13598,14	659,00
-13566,05	561,00
-13534,05	564,00
-13502,12	665,00
-13470,27	655,00
-13438,50	704,00
-13406,80	556,00
-13375,19	592,00
-13343,66	724,00
-13312,20	699,00
-13280,83	588,00
-13249,53	697,00
-13218,30	534,00
-13187,16	660,00
-13156,09	780,00
-13125,10	713,00
-13094,18	649,00
-13063,34	648,00
-13032,58	609,00
-13001,89	701,00
-12971,28	659,00
-12940,74	564,00
-12910,27	729,00
-12879,88	625,00
-12849,57	714,00
-12819,33	726,00
-12789,16	693,00
-12759,06	620,00
-12729,04	544,00
-12699,09	1678,00
-12669,21	605,00
-12639,41	621,00
-12609,68	648,00
-12580,02	646,00
-12550,43	699,00
-12520,91	533,00
-12491,46	643,00
-12462,08	550,00
-12432,77	642,00
-12403,54	601,00
-12374,37	620,00
-12345,27	755,00
-12316,24	716,00
-12287,29	601,00
-12258,40	610,00
-12229,57	647,00
-12200,82	530,00
-12172,14	732,00
-12143,52	485,00
-12114,97	537,00
-12086,49	644,00
-12058,07	767,00
-12029,73	587,00
-12001,44	692,00
-11973,23	677,00
-11945,08	672,00
-11917,00	640,00
-11888,98	574,00
-11861,03	750,00
-11833,15	667,00
-11805,32	678,00
-11777,57	620,00
-11749,88	704,00
-11722,25	661,00
-11694,69	613,00
-11667,19	586,00
-11639,75	724,00
-11612,38	626,00
-11585,07	615,00
-11557,83	699,00
-11530,65	738,00
-11503,53	571,00
-11476,47	678,00
-11449,48	653,00
-11422,54	730,00
-11395,67	658,00
-11368,86	721,00
-11342,11	656,00
-11315,43	622,00
-11288,80	654,00
-11262,23	668,00
-11235,73	699,00
-11209,28	822,00
-11182,90	627,00
-11156,57	609,00
-11130,31	762,00
-11104,10	651,00
-11077,96	614,00
-11051,87	616,00
-11025,84	588,00
-10999,87	614,00
-10973,96	647,00
-10948,11	576,00
-10922,31	633,00
-10896,58	698,00
-10870,90	736,00
-10845,28	661,00
-10819,71	627,00
-10794,20	761,00
-10768,75	658,00
-10743,36	765,00
-10718,02	645,00
-10692,74	621,00
-10667,52	642,00
-10642,35	671,00
-10617,24	681,00
-10592,18	665,00
-10567,18	625,00
-10542,23	686,00
-10517,34	700,00
-10492,51	757,00
-10467,72	607,00
-10443,00	718,00
-10418,32	676,00
-10393,70	715,00
-10369,14	604,00
-10344,63	632,00
-10320,17	756,00
-10295,77	747,00
-10271,42	700,00
-10247,12	700,00
-10222,88	775,00
-10198,68	597,00
-10174,54	804,00
-10150,46	895,00
-10126,42	806,00
-10102,44	704,00
-10078,51	739,00
-10054,63	842,00
-10030,80	662,00
-10007,03	799,00
-9983,30	703,00
-9959,63	872,00
-9936,01	752,00
-9912,44	808,00
-9888,92	810,00
-9865,44	724,00
-9842,02	738,00
-9818,65	871,00
-9795,33	684,00
-9772,06	801,00
-9748,84	778,00
-9725,67	715,00
-9702,55	831,00
-9679,47	955,00
-9656,45	980,00
-9633,47	830,00
-9610,55	820,00
-9587,67	923,00
-9564,84	1124,00
-9542,06	977,00
-9519,32	1090,00
-9496,64	1215,00
-9474,00	1066,00
-9451,41	1065,00
-9428,87	1150,00
-9406,37	1086,00
-9383,92	1110,00
-9361,52	1045,00
-9339,17	1203,00
-9316,86	1079,00
-9294,60	1353,00
-9272,38	1361,00
-9250,21	1512,00
-9228,09	1462,00
-9206,01	1517,00
-9183,98	1394,00
-9162,00	1218,00
-9140,06	1372,00
-9118,16	1287,00
-9096,31	1204,00
-9074,51	1357,00
-9052,75	1432,00
-9031,04	1364,00
-9009,37	1283,00
-8987,74	1220,00
-8966,16	1297,00
-8944,63	1089,00
-8923,14	1061,00
-8901,69	1084,00
-8880,29	999,00
-8858,93	1244,00
-8837,61	1309,00
-8816,34	1153,00
-8795,11	1313,00
-8773,92	1134,00
-8752,78	1096,00
-8731,68	1081,00
-8710,62	1126,00
-8689,61	1011,00
-8668,63	1151,00
-8647,70	1280,00
-8626,82	1223,00
-8605,97	1327,00
-8585,17	1186,00
-8564,41	1163,00
-8543,69	1040,00
-8523,01	898,00
-8502,37	1268,00
-8481,78	1037,00
-8461,23	895,00
-8440,71	1173,00
-8420,24	1180,00
-8399,81	1311,00
-8379,42	1154,00
-8359,08	1178,00
-8338,77	1101,00
-8318,50	944,00
-8298,27	959,00
-8278,09	1068,00
-8257,94	1088,00
-8237,83	1094,00
-8217,76	1073,00
-8197,74	1189,00
-8177,75	1182,00
-8157,80	944,00
-8137,89	849,00
-8118,02	986,00
-8098,19	1092,00
-8078,40	1000,00
-8058,65	911,00
-8038,93	1079,00
-8019,26	1080,00
-7999,62	1033,00
-7980,02	1024,00
-7960,46	893,00
-7940,94	871,00
-7921,46	819,00
-7902,01	906,00
-7882,60	1010,00
-7863,23	947,00
-7843,90	879,00
-7824,61	984,00
-7805,35	1159,00
-7786,13	973,00
-7766,95	1016,00
-7747,80	1002,00
-7728,69	1099,00
-7709,62	1007,00
-7690,59	956,00
-7671,59	1192,00
-7652,63	938,00
-7633,70	989,00
-7614,81	1006,00
-7595,96	938,00
-7577,15	930,00
-7558,37	799,00
-7539,62	896,00
-7520,91	845,00
-7502,24	929,00
-7483,60	990,00
-7465,00	888,00
-7446,44	936,00
-7427,91	740,00
-7409,41	922,00
-7390,95	850,00
-7372,53	743,00
-7354,14	755,00
-7335,78	685,00
-7317,46	772,00
-7299,18	744,00
-7280,92	909,00
-7262,71	922,00
-7244,52	1017,00
-7226,38	790,00
-7208,26	832,00
-7190,18	804,00
-7172,14	798,00
-7154,12	870,00
-7136,15	857,00
-7118,20	957,00
-7100,29	950,00
-7082,41	994,00
-7064,57	889,00
-7046,76	906,00
-7028,98	747,00
-7011,24	787,00
-6993,53	631,00
-6975,85	720,00
-6958,20	698,00
-6940,59	722,00
-6923,01	638,00
-6905,46	819,00
-6887,94	749,00
-6870,46	994,00
-6853,01	917,00
-6835,59	753,00
-6818,21	727,00
-6800,85	730,00
-6783,53	724,00
-6766,24	597,00
-6748,98	630,00
-6731,76	585,00
-6714,56	698,00
-6697,40	566,00
-6680,26	629,00
-6663,16	619,00
-6646,09	789,00
-6629,05	804,00
-6612,05	717,00
-6595,07	689,00
-6578,13	733,00
-6561,21	668,00
-6544,33	696,00
-6527,47	554,00
-6510,65	682,00
-6493,86	488,00
-6477,10	573,00
-6460,36	752,00
-6443,66	582,00
-6426,99	670,00
-6410,35	537,00
-6393,74	730,00
-6377,16	551,00
-6360,61	628,00
-6344,09	562,00
-6327,59	575,00
-6311,13	790,00
-6294,70	650,00
-6278,29	671,00
-6261,92	728,00
-6245,58	766,00
-6229,26	780,00
-6212,97	758,00
-6196,72	470,00
-6180,49	638,00
-6164,29	452,00
-6148,12	836,00
-6131,98	733,00
-6115,86	527,00
-6099,78	592,00
-6083,72	640,00
-6067,69	544,00
-6051,69	634,00
-6035,72	666,00
-6019,78	609,00
-6003,87	704,00
-5987,98	648,00
-5972,12	686,00
-5956,29	651,00
-5940,49	627,00
-5924,71	767,00
-5908,96	606,00
-5893,24	613,00
-5877,55	577,00
-5861,89	612,00
-5846,25	512,00
-5830,64	567,00
-5815,05	605,00
-5799,50	653,00
-5783,97	647,00
-5768,47	607,00
-5752,99	772,00
-5737,55	551,00
-5722,12	614,00
-5706,73	670,00
-5691,36	737,00
-5676,02	598,00
-5660,71	626,00
-5645,42	580,00
-5630,16	646,00
-5614,92	697,00
-5599,71	559,00
-5584,53	617,00
-5569,37	603,00
-5554,24	1564,00
-5539,14	624,00
-5524,06	678,00
-5509,01	643,00
-5493,98	573,00
-5478,98	605,00
-5464,00	567,00
-5449,05	564,00
-5434,13	629,00
-5419,23	532,00
-5404,36	578,00
-5389,51	583,00
-5374,69	593,00
-5359,89	614,00
-5345,12	738,00
-5330,37	774,00
-5315,65	608,00
-5300,95	621,00
-5286,28	611,00
-5271,63	470,00
-5257,01	614,00
-5242,41	727,00
-5227,84	517,00
-5213,29	621,00
-5198,76	587,00
-5184,26	647,00
-5169,79	566,00
-5155,33	646,00
-5140,91	543,00
-5126,51	656,00
-5112,13	639,00
-5097,77	597,00
-5083,44	647,00
-5069,13	553,00
-5054,85	681,00
-5040,59	686,00
-5026,36	696,00
-5012,15	746,00
-4997,96	643,00
-4983,80	625,00
-4969,66	601,00
-4955,54	613,00
-4941,44	623,00
-4927,37	511,00
-4913,33	549,00
-4899,30	630,00
-4885,30	732,00
-4871,33	568,00
-4857,37	637,00
-4843,44	599,00
-4829,53	697,00
-4815,65	659,00
-4801,79	455,00
-4787,95	704,00
-4774,13	572,00
-4760,34	682,00
-4746,56	753,00
-4732,82	554,00
-4719,09	584,00
-4705,38	668,00
-4691,70	652,00
-4678,04	789,00
-4664,41	724,00
-4650,79	760,00
-4637,20	608,00
-4623,63	521,00
-4610,08	707,00
-4596,56	591,00
-4583,05	612,00
-4569,57	594,00
-4556,11	713,00
-4542,67	690,00
-4529,25	646,00
-4515,86	586,00
-4502,49	703,00
-4489,13	755,00
-4475,80	786,00
-4462,49	578,00
-4449,21	715,00
-4435,94	664,00
-4422,70	579,00
-4409,47	605,00
-4396,27	699,00
-4383,09	588,00
-4369,93	694,00
-4356,79	566,00
-4343,67	666,00
-4330,58	703,00
-4317,50	713,00
-4304,45	720,00
-4291,41	656,00
-4278,40	646,00
-4265,41	587,00
-4252,44	654,00
-4239,49	564,00
-4226,55	695,00
-4213,65	644,00
-4200,76	736,00
-4187,89	712,00
-4175,04	529,00
-4162,21	594,00
-4149,40	675,00
-4136,61	673,00
-4123,85	662,00
-4111,10	631,00
-4098,37	768,00
-4085,66	742,00
-4072,98	641,00
-4060,31	623,00
-4047,66	784,00
-4035,04	775,00
-4022,43	668,00
-4009,84	658,00
-3997,27	569,00
-3984,72	599,00
-3972,19	681,00
-3959,69	686,00
-3947,20	606,00
-3934,73	635,00
-3922,27	588,00
-3909,84	630,00
-3897,43	695,00
-3885,04	673,00
-3872,67	687,00
-3860,31	630,00
-3847,98	679,00
-3835,66	657,00
-3823,36	714,00
-3811,09	626,00
-3798,83	654,00
-3786,59	666,00
-3774,37	771,00
-3762,17	619,00
-3749,98	614,00
-3737,82	667,00
-3725,67	822,00
-3713,55	603,00
-3701,44	755,00
-3689,35	627,00
-3677,28	720,00
-3665,22	594,00
-3653,19	687,00
-3641,17	602,00
-3629,18	741,00
-3617,20	679,00
-3605,24	648,00
-3593,30	655,00
-3581,37	722,00
-3569,47	707,00
-3557,58	664,00
-3545,71	683,00
-3533,86	749,00
-3522,02	569,00
-3510,21	717,00
-3498,41	647,00
-3486,63	694,00
-3474,87	658,00
-3463,12	660,00
-3451,40	643,00
-3439,69	589,00
-3428,00	571,00
-3416,33	760,00
-3404,67	621,00
-3393,03	629,00
-3381,41	755,00
-3369,81	646,00
-3358,22	697,00
-3346,66	744,00
-3335,10	761,00
-3323,57	567,00
-3312,06	764,00
-3300,56	697,00
-3289,08	640,00
-3277,61	596,00
-3266,16	644,00
-3254,73	650,00
-3243,32	660,00
-3231,92	680,00
-3220,55	628,00
-3209,18	793,00
-3197,84	622,00
-3186,51	617,00
-3175,20	661,00
-3163,90	576,00
-3152,63	740,00
-3141,36	660,00
-3130,12	663,00
-3118,89	728,00
-3107,68	601,00
-3096,49	683,00
-3085,31	661,00
-3074,15	608,00
-3063,00	667,00
-3051,87	639,00
-3040,76	583,00
-3029,67	753,00
-3018,59	768,00
-3007,52	772,00
-2996,48	699,00
-2985,44	622,00
-2974,43	655,00
-2963,43	538,00
-2952,45	738,00
-2941,48	637,00
-2930,53	633,00
-2919,60	602,00
-2908,68	659,00
-2897,78	659,00
-2886,89	803,00
-2876,02	692,00
-2865,17	619,00
-2854,33	687,00
-2843,50	667,00
-2832,70	728,00
-2821,90	578,00
-2811,13	707,00
-2800,37	700,00
-2789,62	492,00
-2778,89	707,00
-2768,18	723,00
-2757,48	702,00
-2746,80	757,00
-2736,13	634,00
-2725,48	781,00
-2714,84	567,00
-2704,22	716,00
-2693,61	689,00
-2683,02	693,00
-2672,45	722,00
-2661,89	685,00
-2651,34	713,00
-2640,81	744,00
-2630,30	776,00
-2619,80	668,00
-2609,31	742,00
-2598,84	611,00
-2588,39	659,00
-2577,95	652,00
-2567,52	562,00
-2557,11	594,00
-2546,71	671,00
-2536,33	793,00
-2525,97	645,00
-2515,62	683,00
-2505,28	733,00
-2494,96	656,00
-2484,65	706,00
-2474,36	954,00
-2464,08	537,00
-2453,82	742,00
-2443,57	608,00
-2433,33	595,00
-2423,11	726,00
-2412,91	653,00
-2402,72	697,00
-2392,54	662,00
-2382,38	657,00
-2372,23	724,00
-2362,09	1466,00
-2351,97	677,00
-2341,87	524,00
-2331,78	728,00
-2321,70	761,00
-2311,64	662,00
-2301,59	669,00
-2291,55	640,00
-2281,53	687,00
-2271,53	559,00
-2261,53	746,00
-2251,55	637,00
-2241,59	657,00
-2231,64	695,00
-2221,70	576,00
-2211,78	695,00
-2201,87	739,00
-2191,97	662,00
-2182,09	563,00
-2172,22	723,00
-2162,37	610,00
-2152,53	525,00
-2142,70	646,00
-2132,89	643,00
-2123,09	715,00
-2113,30	686,00
-2103,53	671,00
-2093,77	646,00
-2084,02	543,00
-2074,29	871,00
-2064,57	741,00
-2054,86	699,00
-2045,17	742,00
-2035,49	678,00
-2025,82	628,00
-2016,17	621,00
-2006,53	641,00
-1996,91	691,00
-1987,29	610,00
-1977,69	670,00
-1968,11	668,00
-1958,53	602,00
-1948,97	682,00
-1939,42	652,00
-1929,89	709,00
-1920,37	679,00
-1910,86	631,00
-1901,36	653,00
-1891,88	671,00
-1882,41	694,00
-1872,95	694,00
-1863,51	774,00
-1854,08	596,00
-1844,66	715,00
-1835,26	697,00
-1825,86	760,00
-1816,48	614,00
-1807,11	687,00
-1797,76	642,00
-1788,42	760,00
-1779,09	693,00
-1769,77	667,00
-1760,47	780,00
-1751,17	622,00
-1741,89	602,00
-1732,63	760,00
-1723,37	737,00
-1714,13	846,00
-1704,90	611,00
-1695,68	767,00
-1686,48	661,00
-1677,29	687,00
-1668,11	766,00
-1658,94	729,00
-1649,78	632,00
-1640,64	707,00
-1631,51	691,00
-1622,39	705,00
-1613,28	714,00
-1604,19	786,00
-1595,10	656,00
-1586,03	650,00
-1576,97	702,00
-1567,93	657,00
-1558,89	698,00
-1549,87	740,00
-1540,86	552,00
-1531,86	686,00
-1522,87	576,00
-1513,90	737,00
-1504,93	714,00
-1495,98	738,00
-1487,04	781,00
-1478,12	616,00
-1469,20	663,00
-1460,30	699,00
-1451,40	881,00
-1442,52	728,00
-1433,65	752,00
-1424,80	673,00
-1415,95	609,00
-1407,12	768,00
-1398,30	678,00
-1389,48	672,00
-1380,69	613,00
-1371,90	619,00
-1363,12	706,00
-1354,36	762,00
-1345,60	669,00
-1336,86	720,00
-1328,13	730,00
-1319,41	618,00
-1310,70	640,00
-1302,01	617,00
-1293,32	564,00
-1284,65	723,00
-1275,99	770,00
-1267,33	718,00
-1258,69	779,00
-1250,06	738,00
-1241,45	615,00
-1232,84	882,00
-1224,25	744,00
-1215,66	729,00
-1207,09	706,00
-1198,53	647,00
-1189,97	714,00
-1181,43	559,00
-1172,91	711,00
-1164,39	745,00
-1155,88	633,00
-1147,38	582,00
-1138,90	636,00
-1130,43	686,00
-1121,96	626,00
-1113,51	626,00
-1105,07	710,00
-1096,64	734,00
-1088,22	643,00
-1079,81	806,00
-1071,41	825,00
-1063,02	693,00
-1054,65	746,00
-1046,28	620,00
-1037,92	676,00
-1029,58	702,00
-1021,24	717,00
-1012,92	887,00
-1004,61	694,00
-996,30	826,00
-988,01	602,00
-979,73	729,00
-971,46	722,00
-963,20	639,00
-954,95	634,00
-946,71	648,00
-938,48	739,00
-930,26	712,00
-922,06	700,00
-913,86	657,00
-905,67	614,00
-897,49	674,00
-889,33	578,00
-881,17	768,00
-873,02	742,00
-864,89	578,00
-856,76	621,00
-848,65	713,00
-840,54	761,00
-832,45	636,00
-824,36	577,00
-816,29	675,00
-808,22	735,00
-800,17	778,00
-792,12	647,00
-784,09	776,00
-776,06	630,00
-768,05	694,00
-760,04	598,00
-752,05	618,00
-744,07	665,00
-736,09	746,00
-728,13	528,00
-720,17	674,00
-712,23	657,00
-704,29	649,00
-696,37	701,00
-688,45	739,00
-680,55	678,00
-672,65	567,00
-664,77	691,00
-656,89	629,00
-649,03	599,00
-641,17	658,00
-633,32	659,00
-625,49	775,00
-617,66	622,00
-609,84	735,00
-602,03	524,00
-594,23	772,00
-586,45	646,00
-578,67	708,00
-570,90	680,00
-563,14	609,00
-555,39	776,00
-547,65	757,00
-539,91	662,00
-532,19	781,00
-524,48	671,00
-516,78	617,00
-509,08	716,00
-501,40	652,00
-493,72	684,00
-486,06	761,00
-478,40	671,00
-470,76	680,00
-463,12	625,00
-455,49	685,00
-447,87	670,00
-440,26	585,00
-432,66	647,00
-425,07	779,00
-417,49	798,00
-409,92	507,00
-402,35	629,00
-394,80	625,00
-387,25	649,00
-379,72	752,00
-372,19	786,00
-364,67	784,00
-357,17	678,00
-349,67	745,00
-342,18	578,00
-334,69	663,00
-327,22	757,00
-319,76	693,00
-312,30	644,00
-304,86	636,00
-297,42	753,00
-290,00	727,00
-282,58	726,00
-275,17	832,00
-267,77	864,00
-260,37	698,00
-252,99	866,00
-245,62	737,00
-238,25	715,00
-230,90	717,00
-223,55	839,00
-216,21	805,00
-208,88	964,00
-201,56	798,00
-194,25	837,00
-186,94	880,00
-179,65	919,00
-172,36	967,00
-165,08	1008,00
-157,81	1073,00
-150,55	1130,00
-143,30	1184,00
-136,06	1148,00
-128,82	1200,00
-121,60	1302,00
-114,38	1368,00
-107,17	1601,00
-99,97	1769,00
-92,78	1781,00
-85,60	1841,00
-78,42	2074,00
-71,25	2316,00
-64,10	2455,00
-56,95	2828,00
-49,81	3309,00
-42,67	3978,00
-35,55	4730,00
-28,43	6170,00
-21,33	9890,00
-14,23	30709,00
-7,14	57498,00
-0,05	57284,00
7,02	57012,00
14,09	57319,00
21,14	26694,00
28,19	11591,00
35,23	7556,00
42,27	5994,00
49,29	4855,00
56,31	4261,00
63,32	3770,00
70,32	3226,00
77,31	2892,00
84,29	2514,00
91,27	2306,00
98,23	2201,00
105,19	2046,00
112,14	2336,00
119,09	3269,00
126,02	4909,00
132,95	5733,00
139,87	6034,00
146,78	6066,00
153,68	6262,00
160,58	6027,00
167,46	5817,00
174,34	6108,00
181,21	5959,00
188,08	5889,00
194,93	6020,00
201,78	5900,00
208,62	6033,00
215,45	6117,00
222,27	6035,00
229,09	6093,00
235,90	6016,00
242,70	5987,00
249,49	6086,00
256,27	5907,00
263,05	5922,00
269,82	5911,00
276,58	5852,00
283,33	5712,00
290,08	5806,00
296,82	5708,00
303,55	5690,00
310,27	5713,00
316,98	5666,00
323,69	5673,00
330,39	5560,00
337,08	5696,00
343,76	5648,00
350,44	5629,00
357,11	5513,00
363,77	5640,00
370,42	5458,00
377,07	5555,00
383,71	5550,00
390,34	5522,00
396,96	5641,00
403,58	5579,00
410,19	5632,00
416,79	5731,00
423,38	5661,00
429,97	5600,00
436,55	5419,00
443,12	5399,00
449,68	5246,00
456,24	5304,00
462,79	5426,00
469,33	5289,00
475,86	5284,00
482,39	5220,00
488,91	5266,00
495,42	5172,00
501,93	5212,00
508,42	5110,00
514,91	5077,00
521,40	4994,00
527,87	5144,00
534,34	4897,00
540,80	5006,00
547,25	5124,00
553,70	5098,00
560,14	5053,00
566,57	5101,00
573,00	5047,00
579,41	5106,00
585,83	5040,00
592,23	5035,00
598,62	5085,00
605,01	4955,00
611,40	4909,00
617,77	5147,00
624,14	4948,00
630,50	4911,00
636,85	4954,00
643,20	4848,00
649,54	4815,00
655,87	4870,00
662,20	4859,00
668,52	4794,00
674,83	4768,00
681,13	4765,00
687,43	4909,00
693,72	4599,00
700,00	4575,00
706,28	4601,00
712,55	4643,00
718,81	4763,00
725,07	4751,00
731,32	4730,00
737,56	4794,00
743,79	4809,00
750,02	4753,00
756,24	4639,00
762,46	4638,00
768,67	4900,00
774,87	4678,00
781,06	4631,00
787,25	4706,00
793,43	4620,00
799,60	4562,00
805,77	4705,00
811,93	4669,00
818,08	4570,00
824,23	4593,00
830,37	4842,00
836,50	4515,00
842,63	4558,00
848,75	4573,00
854,87	4537,00
860,97	4610,00
867,07	4617,00
873,17	4614,00
879,25	4541,00
885,33	4522,00
891,41	4575,00
897,47	4520,00
903,53	4436,00
909,59	4381,00
915,63	4434,00
921,67	4464,00
927,71	4444,00
933,74	4411,00
939,76	4169,00
945,77	4278,00
951,78	4530,00
957,78	4304,00
963,78	4343,00
969,77	4238,00
975,75	4295,00
981,72	4321,00
987,69	5354,00
993,66	4424,00
999,61	4423,00
1005,56	4336,00
1011,51	4262,00
1017,44	4283,00
1023,37	4386,00
1029,30	4260,00
1035,22	4387,00
1041,13	4319,00
1047,03	4444,00
1052,93	4488,00
1058,83	4660,00
1064,71	4849,00
1070,59	4592,00
1076,47	4432,00
1082,33	4450,00
1088,20	4401,00
1094,05	4290,00
1099,90	4204,00
1105,74	4234,00
1111,58	4284,00
1117,41	4377,00
1123,23	4464,00
1129,05	4709,00
1134,86	4630,00
1140,67	4392,00
1146,47	4273,00
1152,26	4348,00
1158,05	4275,00
1163,83	4243,00
1169,60	4306,00
1175,37	4206,00
1181,13	4245,00
1186,89	4177,00
1192,64	4223,00
1198,38	4368,00
1204,12	4138,00
1209,85	4207,00
1215,58	4291,00
1221,30	4262,00
1227,02	4276,00
1232,72	4223,00
1238,43	4084,00
1244,12	4178,00
1249,81	4236,00
1255,50	4370,00
1261,17	4238,00
1266,85	4231,00
1272,51	4203,00
1278,17	4332,00
1283,83	4328,00
1289,47	4689,00
1295,12	4831,00
1300,75	4753,00
1306,38	4656,00
1312,01	4433,00
1317,63	4294,00
1323,24	4369,00
1328,85	4391,00
1334,45	4169,00
1340,04	4307,00
1345,63	4298,00
1351,22	4438,00
1356,80	4333,00
1362,37	4376,00
1367,93	4389,00
1373,49	4364,00
1379,05	4284,00
1384,60	4305,00
1390,14	4338,00
1395,68	4386,00
1401,21	4355,00
1406,74	4304,00
1412,26	4456,00
1417,77	4747,00
1423,28	4592,00
1428,78	4744,00
1434,28	4956,00
1439,77	4972,00
1445,26	4986,00
1450,74	4964,00
1456,22	4851,00
1461,68	4789,00
1467,15	4678,00
1472,61	4531,00
1478,06	4584,00
1483,51	4398,00
1488,95	4122,00
1494,38	4375,00
1499,81	4016,00
1505,24	4111,00
1510,65	4002,00
1516,07	4069,00
1521,48	3993,00
1526,88	3976,00
1532,27	4027,00
1537,67	3899,00
1543,05	3922,00
1548,43	3949,00
1553,81	3999,00
1559,18	3690,00
1564,54	3849,00
1569,90	3822,00
1575,25	3811,00
1580,60	3914,00
1585,94	3842,00
1591,28	3873,00
1596,61	3860,00
1601,93	3813,00
1607,25	3905,00
1612,57	3799,00
1617,88	3841,00
1623,18	3838,00
1628,48	3711,00
1633,77	3726,00
1639,06	3797,00
1644,34	3769,00
1649,62	3655,00
1654,89	3752,00
1660,16	3594,00
1665,42	3800,00
1670,67	3539,00
1675,92	3640,00
1681,17	3574,00
1686,41	3637,00
1691,64	3681,00
1696,87	3586,00
1702,10	3574,00
1707,32	3636,00
1712,53	3514,00
1717,74	3523,00
1722,94	3648,00
1728,14	3388,00
1733,33	3533,00
1738,52	3351,00
1743,70	3397,00
1748,88	3445,00
1754,05	3412,00
1759,22	3345,00
1764,38	2542,00
1769,53	3390,00
1774,69	3342,00
1779,83	3262,00
1784,97	3346,00
1790,11	3377,00
1795,24	3282,00
1800,36	3180,00
1805,48	3232,00
1810,60	3153,00
1815,71	3175,00
1820,82	3169,00
1825,92	3172,00
1831,01	3274,00
1836,10	3151,00
1841,19	3263,00
1846,26	3016,00
1851,34	3215,00
1856,41	3204,00
1861,47	3178,00
1866,53	3244,00
1871,59	3148,00
1876,64	3214,00
1881,68	3058,00
1886,72	3095,00
1891,76	3014,00
1896,79	3105,00
1901,81	2921,00
1906,83	2998,00
1911,85	2941,00
1916,86	3019,00
1921,86	2808,00
1926,86	2844,00
1931,86	2971,00
1936,85	2806,00
1941,83	2740,00
1946,81	2860,00
1951,79	2762,00
1956,76	2721,00
1961,72	2636,00
1966,68	2796,00
1971,64	2748,00
1976,59	2802,00
1981,54	2780,00
1986,48	2764,00
1991,42	2610,00
1996,35	2850,00
2001,27	2726,00
2006,20	2586,00
2011,11	2717,00
2016,03	2723,00
2020,93	2646,00
2025,84	2644,00
2030,73	2553,00
2035,63	2539,00
2040,52	2638,00
2045,40	2704,00
2050,28	2629,00
2055,15	2554,00
2060,02	2473,00
2064,89	2647,00
2069,75	2597,00
2074,60	2547,00
2079,46	2478,00
2084,30	2421,00
2089,14	2392,00
2093,98	2538,00
2098,81	2481,00
2103,64	2521,00
2108,46	2579,00
2113,28	2547,00
2118,09	2508,00
2122,90	2416,00
2127,70	2386,00
2132,50	2461,00
2137,30	2489,00
2142,09	2256,00
2146,87	2360,00
2151,66	2447,00
2156,43	2324,00
2161,20	2458,00
2165,97	2417,00
2170,73	2336,00
2175,49	2355,00
2180,24	2418,00
2184,99	2409,00
2189,74	2307,00
2194,48	2372,00
2199,21	2386,00
2203,94	2305,00
2208,67	2215,00
2213,39	2191,00
2218,11	2360,00
2222,82	2178,00
2227,53	2283,00
2232,23	2208,00
2236,93	2251,00
2241,63	2312,00
2246,32	2244,00
2251,00	2242,00
2255,68	2237,00
2260,36	2152,00
2265,03	2217,00
2269,70	2420,00
2274,36	2127,00
2279,02	2229,00
2283,68	2184,00
2288,33	2096,00
2292,97	2144,00
2297,61	2079,00
2302,25	2064,00
2306,88	2093,00
2311,51	2128,00
2316,14	2067,00
2320,75	2032,00
2325,37	1997,00
2329,98	2129,00
2334,59	2072,00
2339,19	2092,00
2343,79	1947,00
2348,38	2021,00
2352,97	1944,00
2357,55	2041,00
2362,13	1940,00
2366,71	1887,00
2371,28	2091,00
2375,85	2017,00
2380,41	2038,00
2384,97	1951,00
2389,52	1970,00
2394,07	1940,00
2398,62	1863,00
2403,16	2053,00
2407,70	1746,00
2412,23	1800,00
2416,76	1947,00
2421,29	1972,00
2425,81	1933,00
2430,32	1935,00
2434,84	1771,00
2439,34	1791,00
2443,85	2003,00
2448,35	1772,00
2452,84	1917,00
2457,33	1846,00
2461,82	1690,00
2466,30	1643,00
2470,78	1779,00
2475,25	1776,00
2479,72	1786,00
2484,19	1858,00
2488,65	1721,00
2493,11	1739,00
2497,56	1940,00
2502,01	1689,00
2506,46	1824,00
2510,90	1678,00
2515,34	1669,00
2519,77	1730,00
2524,20	1731,00
2528,62	1726,00
2533,04	1829,00
2537,46	1703,00
2541,87	1670,00
2546,28	1716,00
2550,68	1755,00
2555,08	1653,00
2559,48	1607,00
2563,87	1529,00
2568,26	1503,00
2572,64	1651,00
2577,02	1633,00
2581,40	1440,00
2585,77	1591,00
2590,14	1578,00
2594,50	1504,00
2598,86	1552,00
2603,22	1485,00
2607,57	1437,00
2611,92	1600,00
2616,26	1628,00
2620,60	1614,00
2624,94	1476,00
2629,27	1570,00
2633,60	1409,00
2637,92	1622,00
2642,24	1602,00
2646,56	1471,00
2650,87	1380,00
2655,18	1552,00
2659,48	1448,00
2663,78	1428,00
2668,08	1416,00
2672,37	1447,00
2676,66	1440,00
2680,95	1409,00
2685,23	1524,00
2689,50	1449,00
2693,78	1378,00
2698,05	1454,00
2702,31	1450,00
2706,57	1492,00
2710,83	1558,00
2715,08	1543,00
2719,33	1570,00
2723,58	1551,00
2727,82	1541,00
2732,06	1518,00
2736,29	1493,00
2740,53	1474,00
2744,75	1441,00
2748,97	1385,00
2753,19	1451,00
2757,41	1489,00
2761,62	1425,00
2765,83	1415,00
2770,03	1462,00
2774,23	1451,00
2778,43	1333,00
2782,62	1408,00
2786,81	1399,00
2791,00	1441,00
2795,18	1426,00
2799,35	1546,00
2803,53	1399,00
2807,70	1367,00
2811,86	1404,00
2816,03	1555,00
2820,19	1480,00
2824,34	1514,00
2828,49	1539,00
2832,64	1572,00
2836,78	1785,00
2840,92	1754,00
2845,06	2006,00
2849,19	2098,00
2853,32	2163,00
2857,45	2057,00
2861,57	2087,00
2865,69	2118,00
2869,80	1995,00
2873,91	2116,00
2878,02	2251,00
2882,12	2229,00
2886,22	2150,00
2890,32	2129,00
2894,41	2236,00
2898,50	2054,00
2902,58	1997,00
2906,67	1947,00
2910,74	1849,00
2914,82	1788,00
2918,89	1835,00
2922,96	1728,00
2927,02	1604,00
2931,08	1604,00
2935,13	1462,00
2939,19	1559,00
2943,24	1436,00
2947,28	1603,00
2951,32	1360,00
2955,36	1249,00
2959,40	1398,00
2963,43	1303,00
2967,46	1242,00
2971,48	1321,00
2975,50	1141,00
2979,52	1331,00
2983,53	1179,00
2987,54	1143,00
2991,55	1237,00
2995,55	1150,00
2999,55	1123,00
3003,54	1090,00
3007,54	1201,00
3011,53	1115,00
3015,51	1148,00
3019,49	1124,00
3023,47	1063,00
3027,45	1104,00
3031,42	1057,00
3035,39	1013,00
3039,35	1149,00
3043,31	1086,00
3047,27	1017,00
3051,22	1103,00
3055,17	934,00
3059,12	1005,00
3063,06	985,00
3067,00	950,00
3070,94	1064,00
3074,87	1149,00
3078,80	1014,00
3082,73	1001,00
3086,65	1032,00
3090,57	991,00
3094,49	923,00
3098,40	946,00
3102,31	946,00
3106,22	976,00
3110,12	898,00
3114,02	926,00
3117,92	902,00
3121,81	955,00
3125,70	967,00
3129,58	890,00
3133,47	867,00
3137,34	999,00
3141,22	936,00
3145,09	970,00
3148,96	969,00
3152,83	1053,00
3156,69	1008,00
3160,55	864,00
3164,40	960,00
3168,26	866,00
3172,10	993,00
3175,95	970,00
3179,79	929,00
3183,63	944,00
3187,47	849,00
3191,30	946,00
3195,13	901,00
3198,95	833,00
3202,78	885,00
3206,60	857,00
3210,41	858,00
3214,23	846,00
3218,03	874,00
3221,84	866,00
3225,64	807,00
3229,44	813,00
3233,24	833,00
3237,03	785,00
3240,82	776,00
3244,61	807,00
3248,39	811,00
3252,17	870,00
3255,95	912,00
3259,72	909,00
3263,49	1012,00
3267,26	816,00
3271,03	843,00
3274,79	821,00
3278,54	879,00
3282,30	685,00
3286,05	845,00
3289,80	926,00
3293,54	840,00
3297,29	846,00
3301,02	820,00
3304,76	782,00
3308,49	820,00
3312,22	768,00
3315,95	874,00
3319,67	785,00
3323,39	874,00
3327,10	822,00
3330,82	722,00
3334,53	764,00
3338,24	804,00
3341,94	737,00
3345,64	830,00
3349,34	684,00
3353,03	831,00
3356,72	829,00
3360,41	810,00
3364,10	795,00
3367,78	740,00
3371,46	814,00
3375,13	779,00
3378,81	839,00
3382,48	731,00
3386,14	812,00
3389,81	826,00
3393,47	777,00
3397,12	896,00
3400,78	755,00
3404,43	748,00
3408,08	792,00
3411,72	699,00
3415,36	700,00
3419,00	688,00
3422,64	742,00
3426,27	819,00
3429,90	756,00
3433,53	692,00
3437,15	756,00
3440,77	673,00
3444,39	700,00
3448,00	743,00
3451,62	752,00
3455,22	701,00
3458,83	640,00
3462,43	664,00
3466,03	838,00
3469,63	637,00
3473,22	643,00
3476,81	590,00
3480,40	814,00
3483,99	664,00
3487,57	749,00
3491,15	673,00
3494,72	633,00
3498,29	792,00
3501,86	687,00
3505,43	731,00
3508,99	708,00
3512,56	588,00
3516,11	666,00
3519,67	640,00
3523,22	686,00
3526,77	616,00
3530,32	840,00
3533,86	738,00
3537,40	812,00
3540,94	718,00
3544,47	723,00
3548,00	618,00
3551,53	697,00
3555,06	658,00
3558,58	745,00
3562,10	646,00
3565,62	604,00
3569,13	693,00
3572,64	776,00
3576,15	614,00
3579,66	660,00
3583,16	673,00
3586,66	658,00
3590,16	675,00
3593,65	633,00
3597,14	581,00
3600,63	753,00
3604,11	658,00
3607,60	669,00
3611,08	671,00
3614,55	718,00
3618,03	555,00
3621,50	537,00
3624,97	561,00
3628,43	616,00
3631,90	599,00
3635,36	564,00
3638,81	662,00
3642,27	658,00
3645,72	547,00
3649,17	618,00
3652,61	583,00
3656,06	541,00
3659,50	620,00
3662,93	644,00
3666,37	715,00
3669,80	787,00
3673,23	662,00
3676,65	663,00
3680,08	625,00
3683,50	595,00
3686,92	625,00
3690,33	638,00
3693,74	578,00
3697,15	513,00
3700,56	668,00
3703,96	683,00
3707,36	469,00
3710,76	554,00
3714,16	566,00
3717,55	606,00
3720,94	542,00
3724,33	627,00
3727,71	639,00
3731,10	609,00
3734,48	601,00
3737,85	594,00
3741,23	561,00
3744,60	594,00
3747,97	445,00
3751,33	639,00
3754,69	565,00
3758,05	559,00
3761,41	513,00
3764,77	558,00
3768,12	488,00
3771,47	459,00
3774,82	587,00
3778,16	-8,00
3781,50	12,00
3784,84	2,00
3788,18	6,00
>>>>>End Processed Spectral Data<<<<<
