SpectraSuite Data File
++++++++++++++++++++++++++++++++++++
Date: Mon Jan 05 16:29:01 ICT 2026
User: Administrator
Dark Spectrum Present: Yes
Reference Spectrum Present: No
Number of Sampled Component Spectra: 1
Spectrometers: MAYP113682
Integration Time (usec): 3000000 (MAYP113682)
Spectra Averaged: 1 (MAYP113682)
Boxcar Smoothing: 0 (MAYP113682)
Correct for Electrical Dark: No (MAYP113682)
Strobe/Lamp Enabled: No (MAYP113682)
Correct for Detector Non-linearity: No (MAYP113682)
Correct for Stray Light: No (MAYP113682)
Number of Pixels in Processed Spectrum: 2068
>>>>>Begin Processed Spectral Data<<<<<
-37534,58	24,00
-37414,56	4,00
-37295,11	5,00
-37176,24	5,00
-37057,95	443,00
-36940,22	501,00
-36823,05	586,00
-36706,45	580,00
-36590,40	550,00
-36474,90	509,00
-36359,95	592,00
-36245,55	603,00
-36131,68	533,00
-36018,35	560,00
-35905,55	576,00
-35793,29	668,00
-35681,54	482,00
-35570,32	553,00
-35459,62	663,00
-35349,43	679,00
-35239,75	665,00
-35130,58	568,00
-35021,91	584,00
-34913,74	590,00
-34806,07	591,00
-34698,89	737,00
-34592,20	539,00
-34486,00	706,00
-34380,28	648,00
-34275,04	594,00
-34170,27	576,00
-34065,98	598,00
-33962,16	664,00
-33858,81	638,00
-33755,92	612,00
-33653,49	777,00
-33551,52	668,00
-33450,01	649,00
-33348,94	663,00
-33248,33	590,00
-33148,16	563,00
-33048,43	593,00
-32949,14	690,00
-32850,29	718,00
-32751,87	560,00
-32653,89	676,00
-32556,33	706,00
-32459,20	639,00
-32362,49	730,00
-32266,19	675,00
-32170,32	605,00
-32074,86	604,00
-31979,82	675,00
-31885,18	720,00
-31790,95	719,00
-31697,12	669,00
-31603,69	652,00
-31510,67	675,00
-31418,04	641,00
-31325,80	687,00
-31233,95	617,00
-31142,49	715,00
-31051,42	603,00
-30960,73	729,00
-30870,43	724,00
-30780,50	753,00
-30690,95	603,00
-30601,77	752,00
-30512,97	673,00
-30424,53	681,00
-30336,46	616,00
-30248,76	676,00
-30161,42	786,00
-30074,44	592,00
-29987,81	710,00
-29901,55	693,00
-29815,63	649,00
-29730,07	710,00
-29644,86	655,00
-29560,00	648,00
-29475,48	684,00
-29391,30	672,00
-29307,47	708,00
-29223,97	734,00
-29140,81	761,00
-29057,99	722,00
-28975,50	579,00
-28893,34	688,00
-28811,51	512,00
-28730,00	655,00
-28648,82	621,00
-28567,97	683,00
-28487,43	596,00
-28407,21	652,00
-28327,32	703,00
-28247,73	795,00
-28168,46	554,00
-28089,50	748,00
-28010,85	668,00
-27932,51	582,00
-27854,48	669,00
-27776,75	604,00
-27699,32	667,00
-27622,19	597,00
-27545,37	702,00
-27468,84	635,00
-27392,60	676,00
-27316,66	634,00
-27241,01	618,00
-27165,66	616,00
-27090,59	558,00
-27015,81	695,00
-26941,31	691,00
-26867,10	610,00
-26793,17	788,00
-26719,52	736,00
-26646,15	618,00
-26573,06	630,00
-26500,24	598,00
-26427,70	661,00
-26355,43	596,00
-26283,43	631,00
-26211,71	682,00
-26140,25	705,00
-26069,06	678,00
-25998,13	628,00
-25927,46	636,00
-25857,06	600,00
-25786,92	676,00
-25717,04	536,00
-25647,42	696,00
-25578,05	561,00
-25508,94	642,00
-25440,09	687,00
-25371,48	654,00
-25303,13	690,00
-25235,02	673,00
-25167,17	634,00
-25099,56	645,00
-25032,19	636,00
-24965,07	644,00
-24898,20	600,00
-24831,56	508,00
-24765,17	647,00
-24699,01	555,00
-24633,10	666,00
-24567,41	635,00
-24501,97	626,00
-24436,75	557,00
-24371,77	607,00
-24307,03	630,00
-24242,51	634,00
-24178,22	560,00
-24114,16	688,00
-24050,32	618,00
-23986,71	618,00
-23923,32	621,00
-23860,16	649,00
-23797,22	694,00
-23734,50	662,00
-23672,00	569,00
-23609,71	697,00
-23547,65	571,00
-23485,80	689,00
-23424,16	535,00
-23362,74	748,00
-23301,53	585,00
-23240,54	533,00
-23179,75	554,00
-23119,17	633,00
-23058,80	697,00
-22998,64	697,00
-22938,68	647,00
-22878,93	641,00
-22819,39	568,00
-22760,04	573,00
-22700,90	699,00
-22641,96	632,00
-22583,22	639,00
-22524,68	663,00
-22466,33	617,00
-22408,19	715,00
-22350,23	629,00
-22292,48	647,00
-22234,92	654,00
-22177,55	691,00
-22120,37	822,00
-22063,38	583,00
-22006,58	610,00
-21949,98	612,00
-21893,56	598,00
-21837,33	532,00
-21781,28	577,00
-21725,42	621,00
-21669,74	695,00
-21614,25	630,00
-21558,94	590,00
-21503,81	735,00
-21448,86	772,00
-21394,10	653,00
-21339,51	628,00
-21285,10	597,00
-21230,86	542,00
-21176,81	614,00
-21122,93	660,00
-21069,22	549,00
-21015,69	588,00
-20962,33	616,00
-20909,14	631,00
-20856,13	674,00
-20803,28	680,00
-20750,61	622,00
-20698,10	517,00
-20645,76	560,00
-20593,59	685,00
-20541,59	620,00
-20489,75	685,00
-20438,07	525,00
-20386,56	659,00
-20335,22	573,00
-20284,03	578,00
-20233,01	559,00
-20182,15	596,00
-20131,45	636,00
-20080,91	520,00
-20030,52	654,00
-19980,30	643,00
-19930,23	538,00
-19880,32	619,00
-19830,56	639,00
-19780,96	607,00
-19731,52	592,00
-19682,23	619,00
-19633,09	536,00
-19584,10	503,00
-19535,26	641,00
-19486,58	676,00
-19438,04	557,00
-19389,66	690,00
-19341,42	501,00
-19293,33	634,00
-19245,39	579,00
-19197,60	730,00
-19149,95	602,00
-19102,45	632,00
-19055,09	545,00
-19007,87	606,00
-18960,80	707,00
-18913,87	549,00
-18867,09	546,00
-18820,44	735,00
-18773,94	574,00
-18727,57	622,00
-18681,35	560,00
-18635,26	674,00
-18589,31	511,00
-18543,50	578,00
-18497,83	629,00
-18452,29	585,00
-18406,89	535,00
-18361,63	715,00
-18316,50	672,00
-18271,50	687,00
-18226,63	725,00
-18181,90	590,00
-18137,30	711,00
-18092,84	670,00
-18048,50	653,00
-18004,29	560,00
-17960,22	537,00
-17916,27	645,00
-17872,45	676,00
-17828,76	692,00
-17785,20	613,00
-17741,77	635,00
-17698,46	706,00
-17655,28	561,00
-17612,22	674,00
-17569,29	571,00
-17526,48	672,00
-17483,79	638,00
-17441,23	605,00
-17398,79	585,00
-17356,48	552,00
-17314,28	767,00
-17272,21	635,00
-17230,26	632,00
-17188,42	587,00
-17146,71	626,00
-17105,12	531,00
-17063,64	562,00
-17022,28	611,00
-16981,04	587,00
-16939,92	569,00
-16898,91	781,00
-16858,02	598,00
-16817,25	648,00
-16776,59	653,00
-16736,04	632,00
-16695,61	700,00
-16655,29	576,00
-16615,09	554,00
-16574,99	624,00
-16535,01	684,00
-16495,15	609,00
-16455,39	638,00
-16415,74	612,00
-16376,21	551,00
-16336,78	586,00
-16297,46	588,00
-16258,26	537,00
-16219,16	601,00
-16180,17	614,00
-16141,28	651,00
-16102,51	635,00
-16063,84	553,00
-16025,27	611,00
-15986,82	539,00
-15948,46	609,00
-15910,22	606,00
-15872,07	531,00
-15834,04	675,00
-15796,10	608,00
-15758,27	782,00
-15720,54	652,00
-15682,91	600,00
-15645,39	716,00
-15607,97	588,00
-15570,64	569,00
-15533,42	625,00
-15496,30	667,00
-15459,28	633,00
-15422,36	600,00
-15385,54	569,00
-15348,82	594,00
-15312,19	782,00
-15275,66	522,00
-15239,23	658,00
-15202,90	503,00
-15166,67	658,00
-15130,53	735,00
-15094,48	667,00
-15058,54	585,00
-15022,68	608,00
-14986,93	553,00
-14951,26	650,00
-14915,69	682,00
-14880,22	657,00
-14844,84	608,00
-14809,55	585,00
-14774,35	554,00
-14739,25	576,00
-14704,24	682,00
-14669,32	663,00
-14634,49	609,00
-14599,75	716,00
-14565,10	597,00
-14530,55	600,00
-14496,08	601,00
-14461,70	676,00
-14427,41	619,00
-14393,21	527,00
-14359,10	542,00
-14325,07	579,00
-14291,14	563,00
-14257,29	584,00
-14223,52	552,00
-14189,85	734,00
-14156,26	650,00
-14122,76	506,00
-14089,34	579,00
-14056,01	592,00
-14022,76	561,00
-13989,60	663,00
-13956,52	710,00
-13923,53	647,00
-13890,62	509,00
-13857,79	636,00
-13825,05	574,00
-13792,39	561,00
-13759,81	645,00
-13727,31	604,00
-13694,90	616,00
-13662,57	726,00
-13630,31	640,00
-13598,14	628,00
-13566,05	536,00
-13534,05	590,00
-13502,12	629,00
-13470,27	583,00
-13438,50	645,00
-13406,80	645,00
-13375,19	703,00
-13343,66	657,00
-13312,20	648,00
-13280,83	614,00
-13249,53	664,00
-13218,30	530,00
-13187,16	622,00
-13156,09	700,00
-13125,10	632,00
-13094,18	701,00
-13063,34	634,00
-13032,58	526,00
-13001,89	679,00
-12971,28	710,00
-12940,74	706,00
-12910,27	632,00
-12879,88	679,00
-12849,57	618,00
-12819,33	605,00
-12789,16	655,00
-12759,06	622,00
-12729,04	551,00
-12699,09	1554,00
-12669,21	560,00
-12639,41	702,00
-12609,68	579,00
-12580,02	639,00
-12550,43	729,00
-12520,91	582,00
-12491,46	612,00
-12462,08	546,00
-12432,77	661,00
-12403,54	533,00
-12374,37	574,00
-12345,27	712,00
-12316,24	594,00
-12287,29	592,00
-12258,40	584,00
-12229,57	702,00
-12200,82	535,00
-12172,14	685,00
-12143,52	503,00
-12114,97	594,00
-12086,49	606,00
-12058,07	669,00
-12029,73	549,00
-12001,44	688,00
-11973,23	680,00
-11945,08	633,00
-11917,00	640,00
-11888,98	520,00
-11861,03	731,00
-11833,15	674,00
-11805,32	694,00
-11777,57	598,00
-11749,88	758,00
-11722,25	582,00
-11694,69	612,00
-11667,19	689,00
-11639,75	693,00
-11612,38	630,00
-11585,07	610,00
-11557,83	659,00
-11530,65	724,00
-11503,53	501,00
-11476,47	612,00
-11449,48	582,00
-11422,54	789,00
-11395,67	641,00
-11368,86	713,00
-11342,11	629,00
-11315,43	641,00
-11288,80	558,00
-11262,23	585,00
-11235,73	674,00
-11209,28	781,00
-11182,90	643,00
-11156,57	589,00
-11130,31	779,00
-11104,10	653,00
-11077,96	641,00
-11051,87	536,00
-11025,84	566,00
-10999,87	676,00
-10973,96	616,00
-10948,11	600,00
-10922,31	736,00
-10896,58	632,00
-10870,90	687,00
-10845,28	709,00
-10819,71	579,00
-10794,20	674,00
-10768,75	627,00
-10743,36	678,00
-10718,02	593,00
-10692,74	642,00
-10667,52	569,00
-10642,35	579,00
-10617,24	632,00
-10592,18	675,00
-10567,18	588,00
-10542,23	639,00
-10517,34	632,00
-10492,51	649,00
-10467,72	581,00
-10443,00	641,00
-10418,32	574,00
-10393,70	668,00
-10369,14	500,00
-10344,63	545,00
-10320,17	575,00
-10295,77	659,00
-10271,42	566,00
-10247,12	558,00
-10222,88	618,00
-10198,68	568,00
-10174,54	531,00
-10150,46	689,00
-10126,42	722,00
-10102,44	454,00
-10078,51	544,00
-10054,63	635,00
-10030,80	511,00
-10007,03	679,00
-9983,30	581,00
-9959,63	539,00
-9936,01	645,00
-9912,44	550,00
-9888,92	535,00
-9865,44	458,00
-9842,02	518,00
-9818,65	588,00
-9795,33	360,00
-9772,06	522,00
-9748,84	421,00
-9725,67	356,00
-9702,55	459,00
-9679,47	516,00
-9656,45	371,00
-9633,47	228,00
-9610,55	337,00
-9587,67	395,00
-9564,84	342,00
-9542,06	284,00
-9519,32	432,00
-9496,64	290,00
-9474,00	196,00
-9451,41	115,00
-9428,87	124,00
-9406,37	223,00
-9383,92	125,00
-9361,52	-1,00
-9339,17	151,00
-9316,86	2,00
-9294,60	84,00
-9272,38	73,00
-9250,21	132,00
-9228,09	-26,00
-9206,01	18,00
-9183,98	-118,00
-9162,00	-152,00
-9140,06	73,00
-9118,16	-102,00
-9096,31	-186,00
-9074,51	-159,00
-9052,75	3,00
-9031,04	92,00
-9009,37	-111,00
-8987,74	30,00
-8966,16	-12,00
-8944,63	140,00
-8923,14	198,00
-8901,69	121,00
-8880,29	33,00
-8858,93	12,00
-8837,61	75,00
-8816,34	168,00
-8795,11	165,00
-8773,92	91,00
-8752,78	216,00
-8731,68	72,00
-8710,62	288,00
-8689,61	52,00
-8668,63	123,00
-8647,70	197,00
-8626,82	248,00
-8605,97	292,00
-8585,17	233,00
-8564,41	177,00
-8543,69	179,00
-8523,01	108,00
-8502,37	351,00
-8481,78	92,00
-8461,23	31,00
-8440,71	187,00
-8420,24	179,00
-8399,81	276,00
-8379,42	222,00
-8359,08	146,00
-8338,77	84,00
-8318,50	52,00
-8298,27	95,00
-8278,09	225,00
-8257,94	118,00
-8237,83	308,00
-8217,76	222,00
-8197,74	176,00
-8177,75	340,00
-8157,80	104,00
-8137,89	197,00
-8118,02	193,00
-8098,19	312,00
-8078,40	214,00
-8058,65	218,00
-8038,93	304,00
-8019,26	230,00
-7999,62	325,00
-7980,02	235,00
-7960,46	323,00
-7940,94	260,00
-7921,46	217,00
-7902,01	189,00
-7882,60	423,00
-7863,23	359,00
-7843,90	218,00
-7824,61	281,00
-7805,35	364,00
-7786,13	235,00
-7766,95	308,00
-7747,80	309,00
-7728,69	289,00
-7709,62	378,00
-7690,59	312,00
-7671,59	356,00
-7652,63	261,00
-7633,70	214,00
-7614,81	346,00
-7595,96	342,00
-7577,15	339,00
-7558,37	257,00
-7539,62	267,00
-7520,91	257,00
-7502,24	368,00
-7483,60	288,00
-7465,00	288,00
-7446,44	345,00
-7427,91	277,00
-7409,41	255,00
-7390,95	320,00
-7372,53	226,00
-7354,14	273,00
-7335,78	319,00
-7317,46	305,00
-7299,18	159,00
-7280,92	342,00
-7262,71	371,00
-7244,52	224,00
-7226,38	220,00
-7208,26	69,00
-7190,18	139,00
-7172,14	285,00
-7154,12	250,00
-7136,15	214,00
-7118,20	261,00
-7100,29	385,00
-7082,41	280,00
-7064,57	161,00
-7046,76	228,00
-7028,98	111,00
-7011,24	329,00
-6993,53	170,00
-6975,85	244,00
-6958,20	316,00
-6940,59	393,00
-6923,01	199,00
-6905,46	255,00
-6887,94	156,00
-6870,46	442,00
-6853,01	214,00
-6835,59	190,00
-6818,21	202,00
-6800,85	333,00
-6783,53	253,00
-6766,24	215,00
-6748,98	245,00
-6731,76	249,00
-6714,56	207,00
-6697,40	176,00
-6680,26	157,00
-6663,16	322,00
-6646,09	249,00
-6629,05	304,00
-6612,05	154,00
-6595,07	110,00
-6578,13	265,00
-6561,21	282,00
-6544,33	400,00
-6527,47	218,00
-6510,65	405,00
-6493,86	165,00
-6477,10	213,00
-6460,36	287,00
-6443,66	208,00
-6426,99	204,00
-6410,35	363,00
-6393,74	385,00
-6377,16	152,00
-6360,61	280,00
-6344,09	92,00
-6327,59	211,00
-6311,13	296,00
-6294,70	348,00
-6278,29	199,00
-6261,92	231,00
-6245,58	251,00
-6229,26	265,00
-6212,97	238,00
-6196,72	154,00
-6180,49	355,00
-6164,29	242,00
-6148,12	485,00
-6131,98	440,00
-6115,86	321,00
-6099,78	368,00
-6083,72	298,00
-6067,69	264,00
-6051,69	306,00
-6035,72	492,00
-6019,78	343,00
-6003,87	372,00
-5987,98	248,00
-5972,12	230,00
-5956,29	224,00
-5940,49	197,00
-5924,71	458,00
-5908,96	376,00
-5893,24	399,00
-5877,55	350,00
-5861,89	355,00
-5846,25	110,00
-5830,64	402,00
-5815,05	286,00
-5799,50	375,00
-5783,97	377,00
-5768,47	382,00
-5752,99	376,00
-5737,55	256,00
-5722,12	201,00
-5706,73	165,00
-5691,36	308,00
-5676,02	358,00
-5660,71	450,00
-5645,42	366,00
-5630,16	369,00
-5614,92	529,00
-5599,71	205,00
-5584,53	311,00
-5569,37	190,00
-5554,24	1263,00
-5539,14	371,00
-5524,06	414,00
-5509,01	365,00
-5493,98	306,00
-5478,98	301,00
-5464,00	198,00
-5449,05	287,00
-5434,13	386,00
-5419,23	317,00
-5404,36	247,00
-5389,51	245,00
-5374,69	270,00
-5359,89	277,00
-5345,12	244,00
-5330,37	403,00
-5315,65	347,00
-5300,95	407,00
-5286,28	400,00
-5271,63	204,00
-5257,01	275,00
-5242,41	350,00
-5227,84	204,00
-5213,29	337,00
-5198,76	388,00
-5184,26	487,00
-5169,79	433,00
-5155,33	405,00
-5140,91	301,00
-5126,51	262,00
-5112,13	328,00
-5097,77	393,00
-5083,44	469,00
-5069,13	493,00
-5054,85	402,00
-5040,59	464,00
-5026,36	336,00
-5012,15	343,00
-4997,96	291,00
-4983,80	477,00
-4969,66	443,00
-4955,54	452,00
-4941,44	392,00
-4927,37	265,00
-4913,33	282,00
-4899,30	202,00
-4885,30	301,00
-4871,33	283,00
-4857,37	319,00
-4843,44	445,00
-4829,53	498,00
-4815,65	432,00
-4801,79	305,00
-4787,95	397,00
-4774,13	388,00
-4760,34	432,00
-4746,56	617,00
-4732,82	457,00
-4719,09	396,00
-4705,38	453,00
-4691,70	319,00
-4678,04	393,00
-4664,41	454,00
-4650,79	620,00
-4637,20	442,00
-4623,63	376,00
-4610,08	428,00
-4596,56	383,00
-4583,05	280,00
-4569,57	385,00
-4556,11	504,00
-4542,67	452,00
-4529,25	445,00
-4515,86	349,00
-4502,49	342,00
-4489,13	378,00
-4475,80	519,00
-4462,49	385,00
-4449,21	601,00
-4435,94	516,00
-4422,70	367,00
-4409,47	355,00
-4396,27	440,00
-4383,09	462,00
-4369,93	549,00
-4356,79	471,00
-4343,67	545,00
-4330,58	553,00
-4317,50	532,00
-4304,45	470,00
-4291,41	511,00
-4278,40	565,00
-4265,41	497,00
-4252,44	522,00
-4239,49	441,00
-4226,55	396,00
-4213,65	485,00
-4200,76	596,00
-4187,89	620,00
-4175,04	500,00
-4162,21	419,00
-4149,40	567,00
-4136,61	641,00
-4123,85	549,00
-4111,10	572,00
-4098,37	650,00
-4085,66	597,00
-4072,98	592,00
-4060,31	538,00
-4047,66	618,00
-4035,04	668,00
-4022,43	570,00
-4009,84	587,00
-3997,27	553,00
-3984,72	587,00
-3972,19	615,00
-3959,69	583,00
-3947,20	567,00
-3934,73	614,00
-3922,27	607,00
-3909,84	512,00
-3897,43	646,00
-3885,04	656,00
-3872,67	680,00
-3860,31	545,00
-3847,98	728,00
-3835,66	639,00
-3823,36	607,00
-3811,09	658,00
-3798,83	614,00
-3786,59	671,00
-3774,37	723,00
-3762,17	545,00
-3749,98	665,00
-3737,82	610,00
-3725,67	799,00
-3713,55	509,00
-3701,44	660,00
-3689,35	658,00
-3677,28	726,00
-3665,22	553,00
-3653,19	592,00
-3641,17	662,00
-3629,18	656,00
-3617,20	595,00
-3605,24	612,00
-3593,30	707,00
-3581,37	668,00
-3569,47	656,00
-3557,58	624,00
-3545,71	665,00
-3533,86	699,00
-3522,02	548,00
-3510,21	644,00
-3498,41	624,00
-3486,63	637,00
-3474,87	553,00
-3463,12	550,00
-3451,40	707,00
-3439,69	579,00
-3428,00	630,00
-3416,33	692,00
-3404,67	510,00
-3393,03	635,00
-3381,41	751,00
-3369,81	646,00
-3358,22	688,00
-3346,66	721,00
-3335,10	727,00
-3323,57	525,00
-3312,06	645,00
-3300,56	641,00
-3289,08	618,00
-3277,61	613,00
-3266,16	629,00
-3254,73	572,00
-3243,32	644,00
-3231,92	600,00
-3220,55	720,00
-3209,18	785,00
-3197,84	621,00
-3186,51	559,00
-3175,20	658,00
-3163,90	501,00
-3152,63	668,00
-3141,36	625,00
-3130,12	630,00
-3118,89	715,00
-3107,68	567,00
-3096,49	672,00
-3085,31	610,00
-3074,15	670,00
-3063,00	649,00
-3051,87	666,00
-3040,76	634,00
-3029,67	754,00
-3018,59	750,00
-3007,52	722,00
-2996,48	694,00
-2985,44	710,00
-2974,43	696,00
-2963,43	588,00
-2952,45	726,00
-2941,48	686,00
-2930,53	693,00
-2919,60	514,00
-2908,68	631,00
-2897,78	635,00
-2886,89	635,00
-2876,02	668,00
-2865,17	569,00
-2854,33	672,00
-2843,50	689,00
-2832,70	671,00
-2821,90	598,00
-2811,13	750,00
-2800,37	626,00
-2789,62	489,00
-2778,89	692,00
-2768,18	613,00
-2757,48	654,00
-2746,80	715,00
-2736,13	597,00
-2725,48	756,00
-2714,84	570,00
-2704,22	684,00
-2693,61	628,00
-2683,02	632,00
-2672,45	679,00
-2661,89	661,00
-2651,34	696,00
-2640,81	660,00
-2630,30	739,00
-2619,80	625,00
-2609,31	706,00
-2598,84	576,00
-2588,39	617,00
-2577,95	600,00
-2567,52	527,00
-2557,11	672,00
-2546,71	703,00
-2536,33	731,00
-2525,97	688,00
-2515,62	685,00
-2505,28	624,00
-2494,96	648,00
-2484,65	720,00
-2474,36	890,00
-2464,08	535,00
-2453,82	753,00
-2443,57	706,00
-2433,33	623,00
-2423,11	743,00
-2412,91	720,00
-2402,72	538,00
-2392,54	690,00
-2382,38	626,00
-2372,23	700,00
-2362,09	1496,00
-2351,97	572,00
-2341,87	602,00
-2331,78	705,00
-2321,70	687,00
-2311,64	574,00
-2301,59	672,00
-2291,55	651,00
-2281,53	755,00
-2271,53	501,00
-2261,53	710,00
-2251,55	634,00
-2241,59	674,00
-2231,64	607,00
-2221,70	624,00
-2211,78	619,00
-2201,87	691,00
-2191,97	643,00
-2182,09	571,00
-2172,22	707,00
-2162,37	534,00
-2152,53	499,00
-2142,70	691,00
-2132,89	649,00
-2123,09	692,00
-2113,30	630,00
-2103,53	631,00
-2093,77	665,00
-2084,02	612,00
-2074,29	669,00
-2064,57	619,00
-2054,86	685,00
-2045,17	630,00
-2035,49	608,00
-2025,82	513,00
-2016,17	565,00
-2006,53	621,00
-1996,91	643,00
-1987,29	602,00
-1977,69	592,00
-1968,11	559,00
-1958,53	592,00
-1948,97	603,00
-1939,42	660,00
-1929,89	641,00
-1920,37	683,00
-1910,86	552,00
-1901,36	729,00
-1891,88	668,00
-1882,41	654,00
-1872,95	719,00
-1863,51	706,00
-1854,08	643,00
-1844,66	668,00
-1835,26	725,00
-1825,86	644,00
-1816,48	584,00
-1807,11	628,00
-1797,76	668,00
-1788,42	672,00
-1779,09	704,00
-1769,77	628,00
-1760,47	730,00
-1751,17	617,00
-1741,89	658,00
-1732,63	670,00
-1723,37	743,00
-1714,13	655,00
-1704,90	575,00
-1695,68	721,00
-1686,48	592,00
-1677,29	653,00
-1668,11	849,00
-1658,94	648,00
-1649,78	626,00
-1640,64	630,00
-1631,51	613,00
-1622,39	686,00
-1613,28	726,00
-1604,19	794,00
-1595,10	623,00
-1586,03	600,00
-1576,97	659,00
-1567,93	677,00
-1558,89	672,00
-1549,87	672,00
-1540,86	615,00
-1531,86	675,00
-1522,87	565,00
-1513,90	679,00
-1504,93	677,00
-1495,98	725,00
-1487,04	688,00
-1478,12	639,00
-1469,20	647,00
-1460,30	652,00
-1451,40	730,00
-1442,52	655,00
-1433,65	781,00
-1424,80	720,00
-1415,95	592,00
-1407,12	793,00
-1398,30	645,00
-1389,48	670,00
-1380,69	640,00
-1371,90	620,00
-1363,12	747,00
-1354,36	678,00
-1345,60	639,00
-1336,86	745,00
-1328,13	788,00
-1319,41	677,00
-1310,70	608,00
-1302,01	575,00
-1293,32	576,00
-1284,65	724,00
-1275,99	715,00
-1267,33	823,00
-1258,69	736,00
-1250,06	611,00
-1241,45	546,00
-1232,84	737,00
-1224,25	693,00
-1215,66	708,00
-1207,09	676,00
-1198,53	700,00
-1189,97	617,00
-1181,43	591,00
-1172,91	620,00
-1164,39	733,00
-1155,88	542,00
-1147,38	528,00
-1138,90	611,00
-1130,43	636,00
-1121,96	636,00
-1113,51	608,00
-1105,07	694,00
-1096,64	751,00
-1088,22	643,00
-1079,81	728,00
-1071,41	771,00
-1063,02	658,00
-1054,65	682,00
-1046,28	587,00
-1037,92	701,00
-1029,58	573,00
-1021,24	679,00
-1012,92	839,00
-1004,61	579,00
-996,30	729,00
-988,01	546,00
-979,73	714,00
-971,46	772,00
-963,20	628,00
-954,95	596,00
-946,71	723,00
-938,48	657,00
-930,26	678,00
-922,06	662,00
-913,86	629,00
-905,67	597,00
-897,49	701,00
-889,33	488,00
-881,17	676,00
-873,02	757,00
-864,89	602,00
-856,76	552,00
-848,65	742,00
-840,54	788,00
-832,45	728,00
-824,36	573,00
-816,29	640,00
-808,22	705,00
-800,17	670,00
-792,12	669,00
-784,09	671,00
-776,06	589,00
-768,05	668,00
-760,04	625,00
-752,05	590,00
-744,07	649,00
-736,09	794,00
-728,13	579,00
-720,17	661,00
-712,23	623,00
-704,29	623,00
-696,37	618,00
-688,45	689,00
-680,55	608,00
-672,65	668,00
-664,77	704,00
-656,89	696,00
-649,03	583,00
-641,17	780,00
-633,32	746,00
-625,49	705,00
-617,66	626,00
-609,84	808,00
-602,03	602,00
-594,23	609,00
-586,45	695,00
-578,67	626,00
-570,90	674,00
-563,14	640,00
-555,39	712,00
-547,65	779,00
-539,91	717,00
-532,19	756,00
-524,48	780,00
-516,78	598,00
-509,08	737,00
-501,40	731,00
-493,72	660,00
-486,06	606,00
-478,40	737,00
-470,76	600,00
-463,12	689,00
-455,49	685,00
-447,87	683,00
-440,26	618,00
-432,66	680,00
-425,07	791,00
-417,49	789,00
-409,92	529,00
-402,35	653,00
-394,80	571,00
-387,25	601,00
-379,72	736,00
-372,19	719,00
-364,67	759,00
-357,17	610,00
-349,67	790,00
-342,18	746,00
-334,69	683,00
-327,22	716,00
-319,76	673,00
-312,30	657,00
-304,86	756,00
-297,42	663,00
-290,00	691,00
-282,58	707,00
-275,17	793,00
-267,77	857,00
-260,37	771,00
-252,99	882,00
-245,62	845,00
-238,25	660,00
-230,90	734,00
-223,55	831,00
-216,21	889,00
-208,88	1049,00
-201,56	894,00
-194,25	967,00
-186,94	1026,00
-179,65	975,00
-172,36	1057,00
-165,08	1100,00
-157,81	1180,00
-150,55	1165,00
-143,30	1373,00
-136,06	1335,00
-128,82	1363,00
-121,60	1418,00
-114,38	1634,00
-107,17	1770,00
-99,97	2032,00
-92,78	2044,00
-85,60	2209,00
-78,42	2476,00
-71,25	2754,00
-64,10	3079,00
-56,95	3527,00
-49,81	4140,00
-42,67	5145,00
-35,55	6013,00
-28,43	7949,00
-21,33	12734,00
-14,23	39802,00
-7,14	57498,00
-0,05	57284,00
7,02	57012,00
14,09	57319,00
21,14	33492,00
28,19	14974,00
35,23	9636,00
42,27	7729,00
49,29	6373,00
56,31	5344,00
63,32	4706,00
70,32	4084,00
77,31	3595,00
84,29	3136,00
91,27	2916,00
98,23	2765,00
105,19	2834,00
112,14	3271,00
119,09	5156,00
126,02	8043,00
132,95	9389,00
139,87	9536,00
146,78	9776,00
153,68	9630,00
160,58	9483,00
167,46	9373,00
174,34	9518,00
181,21	9568,00
188,08	9431,00
194,93	9581,00
201,78	9485,00
208,62	9431,00
215,45	9652,00
222,27	9631,00
229,09	9622,00
235,90	9482,00
242,70	9577,00
249,49	9597,00
256,27	9403,00
263,05	9415,00
269,82	9557,00
276,58	9346,00
283,33	9179,00
290,08	9245,00
296,82	9154,00
303,55	9055,00
310,27	8981,00
316,98	9013,00
323,69	8904,00
330,39	8917,00
337,08	9086,00
343,76	8947,00
350,44	8947,00
357,11	8908,00
363,77	8914,00
370,42	8919,00
377,07	8876,00
383,71	8866,00
390,34	8910,00
396,96	9108,00
403,58	9006,00
410,19	9077,00
416,79	9261,00
423,38	9153,00
429,97	8982,00
436,55	8674,00
443,12	8795,00
449,68	8656,00
456,24	8559,00
462,79	8668,00
469,33	8630,00
475,86	8594,00
482,39	8485,00
488,91	8452,00
495,42	8437,00
501,93	8559,00
508,42	8333,00
514,91	8280,00
521,40	8246,00
527,87	8323,00
534,34	8216,00
540,80	8269,00
547,25	8237,00
553,70	8243,00
560,14	8191,00
566,57	8321,00
573,00	8209,00
579,41	8240,00
585,83	8319,00
592,23	8158,00
598,62	8309,00
605,01	8103,00
611,40	8152,00
617,77	8056,00
624,14	8062,00
630,50	7894,00
636,85	8107,00
643,20	7941,00
649,54	7677,00
655,87	7859,00
662,20	7889,00
668,52	7916,00
674,83	7784,00
681,13	7754,00
687,43	7788,00
693,72	7549,00
700,00	7578,00
706,28	7664,00
712,55	7575,00
718,81	7806,00
725,07	7616,00
731,32	7758,00
737,56	7721,00
743,79	7749,00
750,02	7687,00
756,24	7640,00
762,46	7686,00
768,67	7785,00
774,87	7525,00
781,06	7593,00
787,25	7675,00
793,43	7647,00
799,60	7530,00
805,77	7707,00
811,93	7594,00
818,08	7693,00
824,23	7577,00
830,37	7676,00
836,50	7645,00
842,63	7592,00
848,75	7462,00
854,87	7500,00
860,97	7510,00
867,07	7482,00
873,17	7553,00
879,25	7394,00
885,33	7327,00
891,41	7431,00
897,47	7422,00
903,53	7177,00
909,59	7297,00
915,63	7178,00
921,67	7210,00
927,71	7137,00
933,74	7192,00
939,76	6997,00
945,77	7138,00
951,78	7165,00
957,78	7106,00
963,78	7042,00
969,77	7052,00
975,75	7055,00
981,72	7042,00
987,69	8029,00
993,66	7121,00
999,61	7130,00
1005,56	7252,00
1011,51	7135,00
1017,44	7216,00
1023,37	7209,00
1029,30	7110,00
1035,22	7182,00
1041,13	7089,00
1047,03	7283,00
1052,93	7472,00
1058,83	7996,00
1064,71	8169,00
1070,59	7845,00
1076,47	7548,00
1082,33	7443,00
1088,20	7413,00
1094,05	7287,00
1099,90	7024,00
1105,74	7045,00
1111,58	6995,00
1117,41	7142,00
1123,23	7551,00
1129,05	7768,00
1134,86	7750,00
1140,67	7329,00
1146,47	7001,00
1152,26	6961,00
1158,05	6970,00
1163,83	6919,00
1169,60	6981,00
1175,37	6964,00
1181,13	6877,00
1186,89	6791,00
1192,64	6784,00
1198,38	6891,00
1204,12	6777,00
1209,85	6869,00
1215,58	6741,00
1221,30	6826,00
1227,02	6873,00
1232,72	6779,00
1238,43	6787,00
1244,12	6786,00
1249,81	6952,00
1255,50	6988,00
1261,17	6800,00
1266,85	6912,00
1272,51	7086,00
1278,17	7059,00
1283,83	7213,00
1289,47	7807,00
1295,12	8398,00
1300,75	8227,00
1306,38	7749,00
1312,01	7403,00
1317,63	7178,00
1323,24	7010,00
1328,85	6996,00
1334,45	6833,00
1340,04	6853,00
1345,63	6969,00
1351,22	7033,00
1356,80	6897,00
1362,37	7062,00
1367,93	7075,00
1373,49	7120,00
1379,05	6941,00
1384,60	6909,00
1390,14	7000,00
1395,68	7017,00
1401,21	6966,00
1406,74	6932,00
1412,26	7168,00
1417,77	7469,00
1423,28	7421,00
1428,78	7820,00
1434,28	8215,00
1439,77	8615,00
1445,26	8654,00
1450,74	8416,00
1456,22	8056,00
1461,68	8109,00
1467,15	7792,00
1472,61	7507,00
1478,06	7275,00
1483,51	7009,00
1488,95	6751,00
1494,38	6713,00
1499,81	6623,00
1505,24	6544,00
1510,65	6524,00
1516,07	6549,00
1521,48	6442,00
1526,88	6274,00
1532,27	6403,00
1537,67	6339,00
1543,05	6341,00
1548,43	6181,00
1553,81	6393,00
1559,18	6134,00
1564,54	6207,00
1569,90	6129,00
1575,25	6124,00
1580,60	6014,00
1585,94	6184,00
1591,28	6198,00
1596,61	6058,00
1601,93	6152,00
1607,25	6143,00
1612,57	6036,00
1617,88	6034,00
1623,18	6168,00
1628,48	5955,00
1633,77	5822,00
1639,06	5916,00
1644,34	5865,00
1649,62	5765,00
1654,89	5853,00
1660,16	5710,00
1665,42	5872,00
1670,67	5737,00
1675,92	5657,00
1681,17	5662,00
1686,41	5672,00
1691,64	5705,00
1696,87	5710,00
1702,10	5609,00
1707,32	5631,00
1712,53	5584,00
1717,74	5487,00
1722,94	5577,00
1728,14	5503,00
1733,33	5402,00
1738,52	5283,00
1743,70	5421,00
1748,88	5412,00
1754,05	5442,00
1759,22	5132,00
1764,38	4432,00
1769,53	5310,00
1774,69	5128,00
1779,83	5163,00
1784,97	5126,00
1790,11	5035,00
1795,24	5029,00
1800,36	5132,00
1805,48	5120,00
1810,60	5054,00
1815,71	5004,00
1820,82	5045,00
1825,92	5092,00
1831,01	4994,00
1836,10	4944,00
1841,19	5062,00
1846,26	4821,00
1851,34	4958,00
1856,41	4966,00
1861,47	4829,00
1866,53	5002,00
1871,59	4919,00
1876,64	4821,00
1881,68	4856,00
1886,72	4770,00
1891,76	4831,00
1896,79	4725,00
1901,81	4623,00
1906,83	4578,00
1911,85	4540,00
1916,86	4665,00
1921,86	4425,00
1926,86	4406,00
1931,86	4611,00
1936,85	4393,00
1941,83	4434,00
1946,81	4330,00
1951,79	4252,00
1956,76	4287,00
1961,72	4189,00
1966,68	4251,00
1971,64	4223,00
1976,59	4300,00
1981,54	4151,00
1986,48	4236,00
1991,42	4139,00
1996,35	4291,00
2001,27	4124,00
2006,20	4073,00
2011,11	4250,00
2016,03	4018,00
2020,93	3968,00
2025,84	4209,00
2030,73	4237,00
2035,63	4077,00
2040,52	4079,00
2045,40	4013,00
2050,28	3964,00
2055,15	3963,00
2060,02	3806,00
2064,89	3948,00
2069,75	3978,00
2074,60	3852,00
2079,46	3823,00
2084,30	3829,00
2089,14	3784,00
2093,98	3961,00
2098,81	3879,00
2103,64	3951,00
2108,46	3953,00
2113,28	4003,00
2118,09	3891,00
2122,90	3911,00
2127,70	3887,00
2132,50	3913,00
2137,30	3740,00
2142,09	3658,00
2146,87	3665,00
2151,66	3820,00
2156,43	3736,00
2161,20	3709,00
2165,97	3829,00
2170,73	3717,00
2175,49	3792,00
2180,24	3800,00
2184,99	3863,00
2189,74	3851,00
2194,48	3705,00
2199,21	3686,00
2203,94	3648,00
2208,67	3502,00
2213,39	3484,00
2218,11	3585,00
2222,82	3469,00
2227,53	3478,00
2232,23	3455,00
2236,93	3468,00
2241,63	3403,00
2246,32	3427,00
2251,00	3535,00
2255,68	3295,00
2260,36	3211,00
2265,03	3351,00
2269,70	3514,00
2274,36	3233,00
2279,02	3281,00
2283,68	3128,00
2288,33	3226,00
2292,97	3236,00
2297,61	3220,00
2302,25	3264,00
2306,88	3137,00
2311,51	3103,00
2316,14	3152,00
2320,75	3080,00
2325,37	2974,00
2329,98	3042,00
2334,59	3189,00
2339,19	3070,00
2343,79	2930,00
2348,38	3111,00
2352,97	2934,00
2357,55	3026,00
2362,13	3081,00
2366,71	2884,00
2371,28	3066,00
2375,85	2976,00
2380,41	2962,00
2384,97	2883,00
2389,52	2839,00
2394,07	2876,00
2398,62	2853,00
2403,16	2855,00
2407,70	2704,00
2412,23	2746,00
2416,76	2855,00
2421,29	2895,00
2425,81	2805,00
2430,32	2856,00
2434,84	2563,00
2439,34	2641,00
2443,85	2877,00
2448,35	2629,00
2452,84	2599,00
2457,33	2666,00
2461,82	2551,00
2466,30	2572,00
2470,78	2561,00
2475,25	2537,00
2479,72	2580,00
2484,19	2567,00
2488,65	2571,00
2493,11	2383,00
2497,56	2633,00
2502,01	2436,00
2506,46	2534,00
2510,90	2473,00
2515,34	2381,00
2519,77	2447,00
2524,20	2538,00
2528,62	2476,00
2533,04	2503,00
2537,46	2403,00
2541,87	2375,00
2546,28	2363,00
2550,68	2474,00
2555,08	2358,00
2559,48	2258,00
2563,87	2227,00
2568,26	2290,00
2572,64	2315,00
2577,02	2273,00
2581,40	2168,00
2585,77	2353,00
2590,14	2239,00
2594,50	2189,00
2598,86	2317,00
2603,22	2159,00
2607,57	2135,00
2611,92	2205,00
2616,26	2248,00
2620,60	2205,00
2624,94	2148,00
2629,27	2179,00
2633,60	2091,00
2637,92	2224,00
2642,24	2236,00
2646,56	2249,00
2650,87	2099,00
2655,18	2209,00
2659,48	1928,00
2663,78	2098,00
2668,08	2038,00
2672,37	2212,00
2676,66	2098,00
2680,95	1970,00
2685,23	2162,00
2689,50	2085,00
2693,78	2111,00
2698,05	1976,00
2702,31	2124,00
2706,57	2249,00
2710,83	2150,00
2715,08	2300,00
2719,33	2116,00
2723,58	2185,00
2727,82	2230,00
2732,06	2212,00
2736,29	2178,00
2740,53	2138,00
2744,75	2119,00
2748,97	2163,00
2753,19	2030,00
2757,41	2149,00
2761,62	2026,00
2765,83	2063,00
2770,03	2063,00
2774,23	2219,00
2778,43	1992,00
2782,62	1975,00
2786,81	2060,00
2791,00	2045,00
2795,18	2057,00
2799,35	2148,00
2803,53	2089,00
2807,70	2146,00
2811,86	2167,00
2816,03	2279,00
2820,19	2233,00
2824,34	2207,00
2828,49	2337,00
2832,64	2578,00
2836,78	2851,00
2840,92	3053,00
2845,06	3601,00
2849,19	3801,00
2853,32	4019,00
2857,45	3936,00
2861,57	3904,00
2865,69	3872,00
2869,80	3726,00
2873,91	3793,00
2878,02	4011,00
2882,12	4168,00
2886,22	4149,00
2890,32	3935,00
2894,41	3842,00
2898,50	3564,00
2902,58	3537,00
2906,67	3427,00
2910,74	3223,00
2914,82	3020,00
2918,89	3091,00
2922,96	2819,00
2927,02	2736,00
2931,08	2634,00
2935,13	2507,00
2939,19	2484,00
2943,24	2321,00
2947,28	2272,00
2951,32	2100,00
2955,36	1895,00
2959,40	1988,00
2963,43	1975,00
2967,46	1870,00
2971,48	1806,00
2975,50	1636,00
2979,52	1721,00
2983,53	1721,00
2987,54	1654,00
2991,55	1616,00
2995,55	1651,00
2999,55	1554,00
3003,54	1519,00
3007,54	1572,00
3011,53	1467,00
3015,51	1471,00
3019,49	1435,00
3023,47	1381,00
3027,45	1362,00
3031,42	1338,00
3035,39	1307,00
3039,35	1368,00
3043,31	1417,00
3047,27	1384,00
3051,22	1335,00
3055,17	1261,00
3059,12	1277,00
3063,06	1345,00
3067,00	1198,00
3070,94	1224,00
3074,87	1346,00
3078,80	1169,00
3082,73	1289,00
3086,65	1318,00
3090,57	1189,00
3094,49	1215,00
3098,40	1205,00
3102,31	1101,00
3106,22	1166,00
3110,12	1142,00
3114,02	1106,00
3117,92	1162,00
3121,81	1201,00
3125,70	1116,00
3129,58	1061,00
3133,47	1032,00
3137,34	1150,00
3141,22	1167,00
3145,09	1070,00
3148,96	1125,00
3152,83	1203,00
3156,69	1066,00
3160,55	1066,00
3164,40	1188,00
3168,26	1117,00
3172,10	1113,00
3175,95	1093,00
3179,79	1012,00
3183,63	1064,00
3187,47	1091,00
3191,30	1030,00
3195,13	1078,00
3198,95	988,00
3202,78	1033,00
3206,60	967,00
3210,41	930,00
3214,23	1036,00
3218,03	1005,00
3221,84	1044,00
3225,64	952,00
3229,44	903,00
3233,24	953,00
3237,03	924,00
3240,82	934,00
3244,61	866,00
3248,39	918,00
3252,17	895,00
3255,95	1024,00
3259,72	987,00
3263,49	1043,00
3267,26	866,00
3271,03	965,00
3274,79	892,00
3278,54	1007,00
3282,30	865,00
3286,05	1016,00
3289,80	945,00
3293,54	905,00
3297,29	894,00
3301,02	850,00
3304,76	923,00
3308,49	923,00
3312,22	863,00
3315,95	890,00
3319,67	876,00
3323,39	993,00
3327,10	931,00
3330,82	818,00
3334,53	935,00
3338,24	871,00
3341,94	839,00
3345,64	920,00
3349,34	869,00
3353,03	896,00
3356,72	893,00
3360,41	866,00
3364,10	783,00
3367,78	831,00
3371,46	799,00
3375,13	834,00
3378,81	860,00
3382,48	816,00
3386,14	849,00
3389,81	862,00
3393,47	887,00
3397,12	911,00
3400,78	800,00
3404,43	772,00
3408,08	858,00
3411,72	795,00
3415,36	765,00
3419,00	773,00
3422,64	741,00
3426,27	846,00
3429,90	785,00
3433,53	784,00
3437,15	767,00
3440,77	723,00
3444,39	731,00
3448,00	693,00
3451,62	789,00
3455,22	809,00
3458,83	656,00
3462,43	760,00
3466,03	801,00
3469,63	758,00
3473,22	801,00
3476,81	702,00
3480,40	825,00
3483,99	759,00
3487,57	704,00
3491,15	710,00
3494,72	823,00
3498,29	844,00
3501,86	714,00
3505,43	694,00
3508,99	653,00
3512,56	621,00
3516,11	764,00
3519,67	703,00
3523,22	738,00
3526,77	647,00
3530,32	933,00
3533,86	738,00
3537,40	853,00
3540,94	631,00
3544,47	619,00
3548,00	657,00
3551,53	677,00
3555,06	631,00
3558,58	761,00
3562,10	728,00
3565,62	667,00
3569,13	688,00
3572,64	794,00
3576,15	636,00
3579,66	638,00
3583,16	690,00
3586,66	707,00
3590,16	666,00
3593,65	582,00
3597,14	597,00
3600,63	772,00
3604,11	658,00
3607,60	683,00
3611,08	722,00
3614,55	689,00
3618,03	644,00
3621,50	578,00
3624,97	589,00
3628,43	645,00
3631,90	603,00
3635,36	592,00
3638,81	595,00
3642,27	593,00
3645,72	575,00
3649,17	587,00
3652,61	598,00
3656,06	567,00
3659,50	683,00
3662,93	614,00
3666,37	701,00
3669,80	771,00
3673,23	670,00
3676,65	626,00
3680,08	691,00
3683,50	614,00
3686,92	564,00
3690,33	623,00
3693,74	671,00
3697,15	553,00
3700,56	730,00
3703,96	629,00
3707,36	452,00
3710,76	559,00
3714,16	577,00
3717,55	606,00
3720,94	534,00
3724,33	595,00
3727,71	655,00
3731,10	611,00
3734,48	606,00
3737,85	551,00
3741,23	589,00
3744,60	540,00
3747,97	445,00
3751,33	620,00
3754,69	520,00
3758,05	549,00
3761,41	507,00
3764,77	534,00
3768,12	524,00
3771,47	481,00
3774,82	532,00
3778,16	-3,00
3781,50	13,00
3784,84	5,00
3788,18	8,00
>>>>>End Processed Spectral Data<<<<<
