SpectraSuite Data File
++++++++++++++++++++++++++++++++++++
Date: Mon Jan 05 16:24:31 ICT 2026
User: Administrator
Dark Spectrum Present: Yes
Reference Spectrum Present: No
Number of Sampled Component Spectra: 1
Spectrometers: MAYP113682
Integration Time (usec): 3000000 (MAYP113682)
Spectra Averaged: 1 (MAYP113682)
Boxcar Smoothing: 0 (MAYP113682)
Correct for Electrical Dark: No (MAYP113682)
Strobe/Lamp Enabled: No (MAYP113682)
Correct for Detector Non-linearity: No (MAYP113682)
Correct for Stray Light: No (MAYP113682)
Number of Pixels in Processed Spectrum: 2068
>>>>>Begin Processed Spectral Data<<<<<
-37534,58	16,00
-37414,56	2,00
-37295,11	4,00
-37176,24	-3,00
-37057,95	214,00
-36940,22	294,00
-36823,05	307,00
-36706,45	311,00
-36590,40	318,00
-36474,90	305,00
-36359,95	344,00
-36245,55	333,00
-36131,68	389,00
-36018,35	382,00
-35905,55	276,00
-35793,29	443,00
-35681,54	224,00
-35570,32	266,00
-35459,62	339,00
-35349,43	364,00
-35239,75	362,00
-35130,58	320,00
-35021,91	331,00
-34913,74	309,00
-34806,07	384,00
-34698,89	320,00
-34592,20	288,00
-34486,00	371,00
-34380,28	402,00
-34275,04	384,00
-34170,27	326,00
-34065,98	454,00
-33962,16	428,00
-33858,81	373,00
-33755,92	366,00
-33653,49	397,00
-33551,52	458,00
-33450,01	367,00
-33348,94	371,00
-33248,33	344,00
-33148,16	351,00
-33048,43	331,00
-32949,14	466,00
-32850,29	480,00
-32751,87	306,00
-32653,89	443,00
-32556,33	388,00
-32459,20	326,00
-32362,49	374,00
-32266,19	366,00
-32170,32	287,00
-32074,86	425,00
-31979,82	361,00
-31885,18	452,00
-31790,95	392,00
-31697,12	361,00
-31603,69	449,00
-31510,67	473,00
-31418,04	418,00
-31325,80	359,00
-31233,95	371,00
-31142,49	434,00
-31051,42	324,00
-30960,73	403,00
-30870,43	344,00
-30780,50	445,00
-30690,95	400,00
-30601,77	397,00
-30512,97	423,00
-30424,53	406,00
-30336,46	379,00
-30248,76	396,00
-30161,42	502,00
-30074,44	371,00
-29987,81	465,00
-29901,55	416,00
-29815,63	382,00
-29730,07	394,00
-29644,86	446,00
-29560,00	402,00
-29475,48	420,00
-29391,30	417,00
-29307,47	467,00
-29223,97	438,00
-29140,81	357,00
-29057,99	407,00
-28975,50	334,00
-28893,34	459,00
-28811,51	334,00
-28730,00	447,00
-28648,82	371,00
-28567,97	413,00
-28487,43	424,00
-28407,21	401,00
-28327,32	352,00
-28247,73	410,00
-28168,46	388,00
-28089,50	455,00
-28010,85	307,00
-27932,51	329,00
-27854,48	387,00
-27776,75	380,00
-27699,32	424,00
-27622,19	311,00
-27545,37	412,00
-27468,84	417,00
-27392,60	418,00
-27316,66	372,00
-27241,01	353,00
-27165,66	332,00
-27090,59	326,00
-27015,81	462,00
-26941,31	419,00
-26867,10	360,00
-26793,17	443,00
-26719,52	396,00
-26646,15	247,00
-26573,06	390,00
-26500,24	358,00
-26427,70	369,00
-26355,43	287,00
-26283,43	435,00
-26211,71	362,00
-26140,25	406,00
-26069,06	474,00
-25998,13	286,00
-25927,46	374,00
-25857,06	319,00
-25786,92	405,00
-25717,04	416,00
-25647,42	360,00
-25578,05	359,00
-25508,94	325,00
-25440,09	368,00
-25371,48	355,00
-25303,13	430,00
-25235,02	404,00
-25167,17	326,00
-25099,56	350,00
-25032,19	397,00
-24965,07	271,00
-24898,20	277,00
-24831,56	282,00
-24765,17	366,00
-24699,01	349,00
-24633,10	467,00
-24567,41	400,00
-24501,97	241,00
-24436,75	367,00
-24371,77	276,00
-24307,03	391,00
-24242,51	421,00
-24178,22	330,00
-24114,16	344,00
-24050,32	422,00
-23986,71	390,00
-23923,32	342,00
-23860,16	407,00
-23797,22	384,00
-23734,50	331,00
-23672,00	390,00
-23609,71	312,00
-23547,65	362,00
-23485,80	399,00
-23424,16	304,00
-23362,74	472,00
-23301,53	441,00
-23240,54	302,00
-23179,75	327,00
-23119,17	276,00
-23058,80	367,00
-22998,64	487,00
-22938,68	318,00
-22878,93	321,00
-22819,39	268,00
-22760,04	355,00
-22700,90	313,00
-22641,96	380,00
-22583,22	380,00
-22524,68	305,00
-22466,33	370,00
-22408,19	342,00
-22350,23	360,00
-22292,48	237,00
-22234,92	318,00
-22177,55	373,00
-22120,37	476,00
-22063,38	374,00
-22006,58	331,00
-21949,98	431,00
-21893,56	269,00
-21837,33	413,00
-21781,28	346,00
-21725,42	378,00
-21669,74	421,00
-21614,25	296,00
-21558,94	381,00
-21503,81	467,00
-21448,86	456,00
-21394,10	428,00
-21339,51	365,00
-21285,10	318,00
-21230,86	365,00
-21176,81	326,00
-21122,93	326,00
-21069,22	296,00
-21015,69	348,00
-20962,33	324,00
-20909,14	310,00
-20856,13	336,00
-20803,28	442,00
-20750,61	425,00
-20698,10	313,00
-20645,76	341,00
-20593,59	380,00
-20541,59	400,00
-20489,75	351,00
-20438,07	307,00
-20386,56	406,00
-20335,22	363,00
-20284,03	358,00
-20233,01	361,00
-20182,15	319,00
-20131,45	360,00
-20080,91	295,00
-20030,52	406,00
-19980,30	342,00
-19930,23	322,00
-19880,32	388,00
-19830,56	364,00
-19780,96	338,00
-19731,52	367,00
-19682,23	364,00
-19633,09	310,00
-19584,10	316,00
-19535,26	373,00
-19486,58	372,00
-19438,04	311,00
-19389,66	435,00
-19341,42	380,00
-19293,33	350,00
-19245,39	375,00
-19197,60	431,00
-19149,95	337,00
-19102,45	365,00
-19055,09	257,00
-19007,87	229,00
-18960,80	382,00
-18913,87	383,00
-18867,09	374,00
-18820,44	379,00
-18773,94	344,00
-18727,57	382,00
-18681,35	257,00
-18635,26	421,00
-18589,31	352,00
-18543,50	387,00
-18497,83	333,00
-18452,29	351,00
-18406,89	253,00
-18361,63	408,00
-18316,50	351,00
-18271,50	398,00
-18226,63	388,00
-18181,90	352,00
-18137,30	402,00
-18092,84	308,00
-18048,50	396,00
-18004,29	347,00
-17960,22	346,00
-17916,27	348,00
-17872,45	411,00
-17828,76	472,00
-17785,20	334,00
-17741,77	399,00
-17698,46	413,00
-17655,28	351,00
-17612,22	433,00
-17569,29	346,00
-17526,48	391,00
-17483,79	493,00
-17441,23	277,00
-17398,79	308,00
-17356,48	244,00
-17314,28	438,00
-17272,21	394,00
-17230,26	290,00
-17188,42	342,00
-17146,71	392,00
-17105,12	415,00
-17063,64	344,00
-17022,28	391,00
-16981,04	330,00
-16939,92	384,00
-16898,91	439,00
-16858,02	351,00
-16817,25	402,00
-16776,59	280,00
-16736,04	354,00
-16695,61	393,00
-16655,29	393,00
-16615,09	274,00
-16574,99	313,00
-16535,01	344,00
-16495,15	358,00
-16455,39	387,00
-16415,74	384,00
-16376,21	378,00
-16336,78	337,00
-16297,46	265,00
-16258,26	350,00
-16219,16	357,00
-16180,17	323,00
-16141,28	385,00
-16102,51	410,00
-16063,84	253,00
-16025,27	354,00
-15986,82	298,00
-15948,46	327,00
-15910,22	363,00
-15872,07	390,00
-15834,04	467,00
-15796,10	388,00
-15758,27	479,00
-15720,54	346,00
-15682,91	426,00
-15645,39	417,00
-15607,97	387,00
-15570,64	326,00
-15533,42	396,00
-15496,30	317,00
-15459,28	393,00
-15422,36	390,00
-15385,54	417,00
-15348,82	359,00
-15312,19	456,00
-15275,66	293,00
-15239,23	398,00
-15202,90	364,00
-15166,67	413,00
-15130,53	472,00
-15094,48	409,00
-15058,54	369,00
-15022,68	303,00
-14986,93	255,00
-14951,26	450,00
-14915,69	404,00
-14880,22	357,00
-14844,84	358,00
-14809,55	291,00
-14774,35	369,00
-14739,25	315,00
-14704,24	401,00
-14669,32	372,00
-14634,49	260,00
-14599,75	431,00
-14565,10	320,00
-14530,55	300,00
-14496,08	389,00
-14461,70	401,00
-14427,41	434,00
-14393,21	312,00
-14359,10	327,00
-14325,07	368,00
-14291,14	380,00
-14257,29	346,00
-14223,52	446,00
-14189,85	421,00
-14156,26	273,00
-14122,76	319,00
-14089,34	296,00
-14056,01	447,00
-14022,76	307,00
-13989,60	439,00
-13956,52	461,00
-13923,53	423,00
-13890,62	334,00
-13857,79	353,00
-13825,05	336,00
-13792,39	315,00
-13759,81	406,00
-13727,31	324,00
-13694,90	424,00
-13662,57	460,00
-13630,31	413,00
-13598,14	340,00
-13566,05	307,00
-13534,05	397,00
-13502,12	428,00
-13470,27	308,00
-13438,50	389,00
-13406,80	341,00
-13375,19	365,00
-13343,66	410,00
-13312,20	375,00
-13280,83	310,00
-13249,53	472,00
-13218,30	204,00
-13187,16	317,00
-13156,09	459,00
-13125,10	386,00
-13094,18	308,00
-13063,34	386,00
-13032,58	327,00
-13001,89	368,00
-12971,28	411,00
-12940,74	357,00
-12910,27	447,00
-12879,88	353,00
-12849,57	376,00
-12819,33	393,00
-12789,16	455,00
-12759,06	322,00
-12729,04	239,00
-12699,09	207,00
-12669,21	407,00
-12639,41	389,00
-12609,68	313,00
-12580,02	309,00
-12550,43	418,00
-12520,91	305,00
-12491,46	352,00
-12462,08	324,00
-12432,77	389,00
-12403,54	232,00
-12374,37	311,00
-12345,27	375,00
-12316,24	387,00
-12287,29	361,00
-12258,40	346,00
-12229,57	387,00
-12200,82	311,00
-12172,14	375,00
-12143,52	297,00
-12114,97	411,00
-12086,49	348,00
-12058,07	403,00
-12029,73	340,00
-12001,44	416,00
-11973,23	417,00
-11945,08	359,00
-11917,00	353,00
-11888,98	305,00
-11861,03	449,00
-11833,15	358,00
-11805,32	369,00
-11777,57	350,00
-11749,88	368,00
-11722,25	336,00
-11694,69	308,00
-11667,19	459,00
-11639,75	424,00
-11612,38	309,00
-11585,07	317,00
-11557,83	398,00
-11530,65	464,00
-11503,53	335,00
-11476,47	399,00
-11449,48	458,00
-11422,54	415,00
-11395,67	340,00
-11368,86	314,00
-11342,11	301,00
-11315,43	207,00
-11288,80	291,00
-11262,23	380,00
-11235,73	364,00
-11209,28	438,00
-11182,90	363,00
-11156,57	323,00
-11130,31	457,00
-11104,10	402,00
-11077,96	404,00
-11051,87	392,00
-11025,84	360,00
-10999,87	352,00
-10973,96	236,00
-10948,11	346,00
-10922,31	452,00
-10896,58	397,00
-10870,90	431,00
-10845,28	359,00
-10819,71	314,00
-10794,20	440,00
-10768,75	386,00
-10743,36	356,00
-10718,02	325,00
-10692,74	322,00
-10667,52	366,00
-10642,35	367,00
-10617,24	371,00
-10592,18	392,00
-10567,18	357,00
-10542,23	382,00
-10517,34	327,00
-10492,51	406,00
-10467,72	377,00
-10443,00	399,00
-10418,32	404,00
-10393,70	442,00
-10369,14	372,00
-10344,63	290,00
-10320,17	466,00
-10295,77	352,00
-10271,42	348,00
-10247,12	379,00
-10222,88	438,00
-10198,68	381,00
-10174,54	414,00
-10150,46	541,00
-10126,42	512,00
-10102,44	399,00
-10078,51	313,00
-10054,63	521,00
-10030,80	428,00
-10007,03	499,00
-9983,30	544,00
-9959,63	516,00
-9936,01	562,00
-9912,44	527,00
-9888,92	510,00
-9865,44	421,00
-9842,02	532,00
-9818,65	547,00
-9795,33	448,00
-9772,06	458,00
-9748,84	433,00
-9725,67	462,00
-9702,55	557,00
-9679,47	532,00
-9656,45	600,00
-9633,47	549,00
-9610,55	618,00
-9587,67	618,00
-9564,84	731,00
-9542,06	726,00
-9519,32	794,00
-9496,64	835,00
-9474,00	834,00
-9451,41	820,00
-9428,87	856,00
-9406,37	859,00
-9383,92	879,00
-9361,52	737,00
-9339,17	910,00
-9316,86	977,00
-9294,60	1002,00
-9272,38	1024,00
-9250,21	1166,00
-9228,09	1241,00
-9206,01	1215,00
-9183,98	1186,00
-9162,00	1047,00
-9140,06	1105,00
-9118,16	1082,00
-9096,31	986,00
-9074,51	1117,00
-9052,75	1135,00
-9031,04	1085,00
-9009,37	936,00
-8987,74	997,00
-8966,16	912,00
-8944,63	889,00
-8923,14	924,00
-8901,69	889,00
-8880,29	870,00
-8858,93	882,00
-8837,61	1026,00
-8816,34	984,00
-8795,11	1092,00
-8773,92	855,00
-8752,78	871,00
-8731,68	767,00
-8710,62	919,00
-8689,61	851,00
-8668,63	920,00
-8647,70	953,00
-8626,82	989,00
-8605,97	880,00
-8585,17	921,00
-8564,41	856,00
-8543,69	874,00
-8523,01	773,00
-8502,37	892,00
-8481,78	796,00
-8461,23	820,00
-8440,71	911,00
-8420,24	864,00
-8399,81	1074,00
-8379,42	910,00
-8359,08	1018,00
-8338,77	798,00
-8318,50	671,00
-8298,27	694,00
-8278,09	826,00
-8257,94	840,00
-8237,83	973,00
-8217,76	898,00
-8197,74	909,00
-8177,75	880,00
-8157,80	768,00
-8137,89	770,00
-8118,02	692,00
-8098,19	778,00
-8078,40	776,00
-8058,65	725,00
-8038,93	840,00
-8019,26	820,00
-7999,62	921,00
-7980,02	786,00
-7960,46	650,00
-7940,94	645,00
-7921,46	597,00
-7902,01	627,00
-7882,60	662,00
-7863,23	695,00
-7843,90	624,00
-7824,61	741,00
-7805,35	762,00
-7786,13	755,00
-7766,95	779,00
-7747,80	750,00
-7728,69	683,00
-7709,62	690,00
-7690,59	698,00
-7671,59	749,00
-7652,63	748,00
-7633,70	750,00
-7614,81	699,00
-7595,96	672,00
-7577,15	724,00
-7558,37	700,00
-7539,62	589,00
-7520,91	658,00
-7502,24	562,00
-7483,60	677,00
-7465,00	604,00
-7446,44	680,00
-7427,91	531,00
-7409,41	504,00
-7390,95	609,00
-7372,53	491,00
-7354,14	639,00
-7335,78	512,00
-7317,46	513,00
-7299,18	507,00
-7280,92	582,00
-7262,71	670,00
-7244,52	702,00
-7226,38	701,00
-7208,26	583,00
-7190,18	589,00
-7172,14	504,00
-7154,12	682,00
-7136,15	613,00
-7118,20	654,00
-7100,29	740,00
-7082,41	646,00
-7064,57	512,00
-7046,76	630,00
-7028,98	552,00
-7011,24	511,00
-6993,53	512,00
-6975,85	591,00
-6958,20	507,00
-6940,59	489,00
-6923,01	400,00
-6905,46	564,00
-6887,94	448,00
-6870,46	-1551,00
-6853,01	680,00
-6835,59	610,00
-6818,21	499,00
-6800,85	460,00
-6783,53	449,00
-6766,24	451,00
-6748,98	443,00
-6731,76	481,00
-6714,56	390,00
-6697,40	408,00
-6680,26	376,00
-6663,16	447,00
-6646,09	520,00
-6629,05	542,00
-6612,05	481,00
-6595,07	516,00
-6578,13	477,00
-6561,21	323,00
-6544,33	474,00
-6527,47	371,00
-6510,65	411,00
-6493,86	317,00
-6477,10	381,00
-6460,36	534,00
-6443,66	366,00
-6426,99	296,00
-6410,35	406,00
-6393,74	448,00
-6377,16	348,00
-6360,61	447,00
-6344,09	326,00
-6327,59	349,00
-6311,13	532,00
-6294,70	411,00
-6278,29	462,00
-6261,92	479,00
-6245,58	487,00
-6229,26	574,00
-6212,97	436,00
-6196,72	390,00
-6180,49	496,00
-6164,29	399,00
-6148,12	506,00
-6131,98	507,00
-6115,86	376,00
-6099,78	419,00
-6083,72	437,00
-6067,69	372,00
-6051,69	394,00
-6035,72	446,00
-6019,78	355,00
-6003,87	551,00
-5987,98	510,00
-5972,12	462,00
-5956,29	367,00
-5940,49	322,00
-5924,71	470,00
-5908,96	390,00
-5893,24	315,00
-5877,55	411,00
-5861,89	341,00
-5846,25	237,00
-5830,64	437,00
-5815,05	358,00
-5799,50	350,00
-5783,97	400,00
-5768,47	313,00
-5752,99	459,00
-5737,55	393,00
-5722,12	333,00
-5706,73	458,00
-5691,36	365,00
-5676,02	369,00
-5660,71	338,00
-5645,42	432,00
-5630,16	410,00
-5614,92	436,00
-5599,71	389,00
-5584,53	416,00
-5569,37	418,00
-5554,24	1293,00
-5539,14	358,00
-5524,06	378,00
-5509,01	406,00
-5493,98	352,00
-5478,98	380,00
-5464,00	419,00
-5449,05	389,00
-5434,13	473,00
-5419,23	389,00
-5404,36	331,00
-5389,51	291,00
-5374,69	442,00
-5359,89	484,00
-5345,12	429,00
-5330,37	488,00
-5315,65	435,00
-5300,95	451,00
-5286,28	390,00
-5271,63	297,00
-5257,01	448,00
-5242,41	421,00
-5227,84	373,00
-5213,29	421,00
-5198,76	396,00
-5184,26	425,00
-5169,79	348,00
-5155,33	376,00
-5140,91	347,00
-5126,51	310,00
-5112,13	385,00
-5097,77	366,00
-5083,44	426,00
-5069,13	302,00
-5054,85	372,00
-5040,59	328,00
-5026,36	411,00
-5012,15	471,00
-4997,96	387,00
-4983,80	475,00
-4969,66	291,00
-4955,54	311,00
-4941,44	402,00
-4927,37	342,00
-4913,33	453,00
-4899,30	366,00
-4885,30	488,00
-4871,33	359,00
-4857,37	386,00
-4843,44	340,00
-4829,53	392,00
-4815,65	335,00
-4801,79	329,00
-4787,95	468,00
-4774,13	425,00
-4760,34	337,00
-4746,56	474,00
-4732,82	335,00
-4719,09	436,00
-4705,38	514,00
-4691,70	451,00
-4678,04	580,00
-4664,41	445,00
-4650,79	430,00
-4637,20	353,00
-4623,63	377,00
-4610,08	500,00
-4596,56	322,00
-4583,05	339,00
-4569,57	319,00
-4556,11	394,00
-4542,67	409,00
-4529,25	401,00
-4515,86	348,00
-4502,49	423,00
-4489,13	428,00
-4475,80	483,00
-4462,49	413,00
-4449,21	380,00
-4435,94	401,00
-4422,70	326,00
-4409,47	309,00
-4396,27	496,00
-4383,09	264,00
-4369,93	389,00
-4356,79	350,00
-4343,67	402,00
-4330,58	408,00
-4317,50	503,00
-4304,45	437,00
-4291,41	373,00
-4278,40	352,00
-4265,41	333,00
-4252,44	315,00
-4239,49	334,00
-4226,55	351,00
-4213,65	353,00
-4200,76	428,00
-4187,89	447,00
-4175,04	339,00
-4162,21	229,00
-4149,40	398,00
-4136,61	364,00
-4123,85	347,00
-4111,10	349,00
-4098,37	414,00
-4085,66	348,00
-4072,98	347,00
-4060,31	352,00
-4047,66	443,00
-4035,04	486,00
-4022,43	346,00
-4009,84	292,00
-3997,27	260,00
-3984,72	375,00
-3972,19	427,00
-3959,69	411,00
-3947,20	394,00
-3934,73	343,00
-3922,27	327,00
-3909,84	299,00
-3897,43	428,00
-3885,04	402,00
-3872,67	350,00
-3860,31	328,00
-3847,98	397,00
-3835,66	394,00
-3823,36	312,00
-3811,09	399,00
-3798,83	302,00
-3786,59	431,00
-3774,37	394,00
-3762,17	265,00
-3749,98	383,00
-3737,82	404,00
-3725,67	452,00
-3713,55	313,00
-3701,44	439,00
-3689,35	407,00
-3677,28	472,00
-3665,22	380,00
-3653,19	380,00
-3641,17	397,00
-3629,18	332,00
-3617,20	437,00
-3605,24	383,00
-3593,30	437,00
-3581,37	427,00
-3569,47	324,00
-3557,58	434,00
-3545,71	336,00
-3533,86	388,00
-3522,02	356,00
-3510,21	358,00
-3498,41	372,00
-3486,63	371,00
-3474,87	328,00
-3463,12	359,00
-3451,40	389,00
-3439,69	444,00
-3428,00	330,00
-3416,33	366,00
-3404,67	300,00
-3393,03	325,00
-3381,41	416,00
-3369,81	366,00
-3358,22	510,00
-3346,66	430,00
-3335,10	418,00
-3323,57	318,00
-3312,06	376,00
-3300,56	464,00
-3289,08	392,00
-3277,61	295,00
-3266,16	405,00
-3254,73	306,00
-3243,32	368,00
-3231,92	300,00
-3220,55	384,00
-3209,18	539,00
-3197,84	308,00
-3186,51	314,00
-3175,20	399,00
-3163,90	378,00
-3152,63	435,00
-3141,36	308,00
-3130,12	412,00
-3118,89	400,00
-3107,68	359,00
-3096,49	389,00
-3085,31	328,00
-3074,15	370,00
-3063,00	446,00
-3051,87	399,00
-3040,76	330,00
-3029,67	428,00
-3018,59	410,00
-3007,52	454,00
-2996,48	391,00
-2985,44	425,00
-2974,43	371,00
-2963,43	288,00
-2952,45	429,00
-2941,48	322,00
-2930,53	397,00
-2919,60	314,00
-2908,68	380,00
-2897,78	330,00
-2886,89	381,00
-2876,02	382,00
-2865,17	320,00
-2854,33	442,00
-2843,50	405,00
-2832,70	348,00
-2821,90	353,00
-2811,13	429,00
-2800,37	500,00
-2789,62	225,00
-2778,89	379,00
-2768,18	411,00
-2757,48	345,00
-2746,80	393,00
-2736,13	360,00
-2725,48	454,00
-2714,84	308,00
-2704,22	352,00
-2693,61	369,00
-2683,02	396,00
-2672,45	430,00
-2661,89	398,00
-2651,34	395,00
-2640,81	442,00
-2630,30	489,00
-2619,80	368,00
-2609,31	470,00
-2598,84	400,00
-2588,39	372,00
-2577,95	287,00
-2567,52	355,00
-2557,11	388,00
-2546,71	372,00
-2536,33	475,00
-2525,97	402,00
-2515,62	438,00
-2505,28	360,00
-2494,96	414,00
-2484,65	435,00
-2474,36	549,00
-2464,08	289,00
-2453,82	527,00
-2443,57	335,00
-2433,33	365,00
-2423,11	472,00
-2412,91	375,00
-2402,72	377,00
-2392,54	290,00
-2382,38	413,00
-2372,23	426,00
-2362,09	-2812,00
-2351,97	336,00
-2341,87	288,00
-2331,78	406,00
-2321,70	381,00
-2311,64	380,00
-2301,59	453,00
-2291,55	370,00
-2281,53	438,00
-2271,53	253,00
-2261,53	394,00
-2251,55	398,00
-2241,59	302,00
-2231,64	341,00
-2221,70	408,00
-2211,78	375,00
-2201,87	456,00
-2191,97	372,00
-2182,09	395,00
-2172,22	420,00
-2162,37	295,00
-2152,53	293,00
-2142,70	383,00
-2132,89	369,00
-2123,09	406,00
-2113,30	381,00
-2103,53	438,00
-2093,77	408,00
-2084,02	410,00
-2074,29	419,00
-2064,57	398,00
-2054,86	451,00
-2045,17	502,00
-2035,49	414,00
-2025,82	286,00
-2016,17	358,00
-2006,53	374,00
-1996,91	380,00
-1987,29	308,00
-1977,69	379,00
-1968,11	378,00
-1958,53	234,00
-1948,97	366,00
-1939,42	381,00
-1929,89	334,00
-1920,37	357,00
-1910,86	354,00
-1901,36	275,00
-1891,88	438,00
-1882,41	342,00
-1872,95	469,00
-1863,51	441,00
-1854,08	353,00
-1844,66	357,00
-1835,26	436,00
-1825,86	452,00
-1816,48	368,00
-1807,11	407,00
-1797,76	343,00
-1788,42	395,00
-1779,09	376,00
-1769,77	329,00
-1760,47	458,00
-1751,17	314,00
-1741,89	316,00
-1732,63	406,00
-1723,37	472,00
-1714,13	503,00
-1704,90	345,00
-1695,68	372,00
-1686,48	304,00
-1677,29	367,00
-1668,11	419,00
-1658,94	358,00
-1649,78	319,00
-1640,64	372,00
-1631,51	316,00
-1622,39	468,00
-1613,28	363,00
-1604,19	502,00
-1595,10	386,00
-1586,03	414,00
-1576,97	422,00
-1567,93	361,00
-1558,89	375,00
-1549,87	399,00
-1540,86	329,00
-1531,86	365,00
-1522,87	377,00
-1513,90	387,00
-1504,93	385,00
-1495,98	399,00
-1487,04	456,00
-1478,12	373,00
-1469,20	444,00
-1460,30	393,00
-1451,40	492,00
-1442,52	375,00
-1433,65	494,00
-1424,80	418,00
-1415,95	384,00
-1407,12	431,00
-1398,30	425,00
-1389,48	389,00
-1380,69	388,00
-1371,90	321,00
-1363,12	419,00
-1354,36	462,00
-1345,60	364,00
-1336,86	326,00
-1328,13	464,00
-1319,41	425,00
-1310,70	387,00
-1302,01	337,00
-1293,32	327,00
-1284,65	367,00
-1275,99	487,00
-1267,33	481,00
-1258,69	357,00
-1250,06	426,00
-1241,45	266,00
-1232,84	445,00
-1224,25	417,00
-1215,66	422,00
-1207,09	396,00
-1198,53	410,00
-1189,97	384,00
-1181,43	350,00
-1172,91	351,00
-1164,39	413,00
-1155,88	303,00
-1147,38	265,00
-1138,90	383,00
-1130,43	366,00
-1121,96	401,00
-1113,51	409,00
-1105,07	359,00
-1096,64	451,00
-1088,22	464,00
-1079,81	386,00
-1071,41	413,00
-1063,02	334,00
-1054,65	463,00
-1046,28	405,00
-1037,92	450,00
-1029,58	352,00
-1021,24	447,00
-1012,92	577,00
-1004,61	423,00
-996,30	461,00
-988,01	341,00
-979,73	462,00
-971,46	490,00
-963,20	329,00
-954,95	327,00
-946,71	430,00
-938,48	437,00
-930,26	432,00
-922,06	403,00
-913,86	289,00
-905,67	324,00
-897,49	455,00
-889,33	325,00
-881,17	464,00
-873,02	371,00
-864,89	389,00
-856,76	337,00
-848,65	413,00
-840,54	486,00
-832,45	432,00
-824,36	313,00
-816,29	357,00
-808,22	409,00
-800,17	413,00
-792,12	310,00
-784,09	453,00
-776,06	281,00
-768,05	366,00
-760,04	346,00
-752,05	387,00
-744,07	371,00
-736,09	347,00
-728,13	333,00
-720,17	359,00
-712,23	388,00
-704,29	283,00
-696,37	410,00
-688,45	453,00
-680,55	356,00
-672,65	418,00
-664,77	405,00
-656,89	440,00
-649,03	367,00
-641,17	541,00
-633,32	373,00
-625,49	420,00
-617,66	397,00
-609,84	513,00
-602,03	316,00
-594,23	385,00
-586,45	438,00
-578,67	461,00
-570,90	369,00
-563,14	365,00
-555,39	422,00
-547,65	385,00
-539,91	371,00
-532,19	430,00
-524,48	411,00
-516,78	334,00
-509,08	514,00
-501,40	447,00
-493,72	474,00
-486,06	346,00
-478,40	395,00
-470,76	298,00
-463,12	360,00
-455,49	358,00
-447,87	367,00
-440,26	403,00
-432,66	373,00
-425,07	469,00
-417,49	420,00
-409,92	298,00
-402,35	363,00
-394,80	364,00
-387,25	386,00
-379,72	443,00
-372,19	421,00
-364,67	438,00
-357,17	398,00
-349,67	447,00
-342,18	381,00
-334,69	467,00
-327,22	389,00
-319,76	447,00
-312,30	434,00
-304,86	436,00
-297,42	503,00
-290,00	385,00
-282,58	525,00
-275,17	579,00
-267,77	470,00
-260,37	494,00
-252,99	608,00
-245,62	541,00
-238,25	494,00
-230,90	507,00
-223,55	509,00
-216,21	493,00
-208,88	715,00
-201,56	605,00
-194,25	620,00
-186,94	678,00
-179,65	680,00
-172,36	728,00
-165,08	796,00
-157,81	824,00
-150,55	921,00
-143,30	926,00
-136,06	964,00
-128,82	1043,00
-121,60	1131,00
-114,38	1148,00
-107,17	1417,00
-99,97	1545,00
-92,78	1556,00
-85,60	1850,00
-78,42	2018,00
-71,25	2333,00
-64,10	2659,00
-56,95	2900,00
-49,81	3549,00
-42,67	4331,00
-35,55	5226,00
-28,43	6908,00
-21,33	11167,00
-14,23	35022,00
-7,14	57498,00
-0,05	57284,00
7,02	57012,00
14,09	57319,00
21,14	30957,00
28,19	13563,00
35,23	8671,00
42,27	6791,00
49,29	5567,00
56,31	4636,00
63,32	4096,00
70,32	3456,00
77,31	3010,00
84,29	2611,00
91,27	2417,00
98,23	2294,00
105,19	2208,00
112,14	2574,00
119,09	4455,00
126,02	7353,00
132,95	9077,00
139,87	9629,00
146,78	9771,00
153,68	9957,00
160,58	9891,00
167,46	9777,00
174,34	9799,00
181,21	9840,00
188,08	9639,00
194,93	9822,00
201,78	9831,00
208,62	9860,00
215,45	10081,00
222,27	9865,00
229,09	10044,00
235,90	9917,00
242,70	9922,00
249,49	9960,00
256,27	9839,00
263,05	9727,00
269,82	9967,00
276,58	9770,00
283,33	9857,00
290,08	9586,00
296,82	9663,00
303,55	9579,00
310,27	9489,00
316,98	9490,00
323,69	9555,00
330,39	9455,00
337,08	9521,00
343,76	9556,00
350,44	9551,00
357,11	9516,00
363,77	9637,00
370,42	9529,00
377,07	9440,00
383,71	9409,00
390,34	9642,00
396,96	9611,00
403,58	9591,00
410,19	9658,00
416,79	9801,00
423,38	9654,00
429,97	9640,00
436,55	9432,00
443,12	9253,00
449,68	9369,00
456,24	9302,00
462,79	9204,00
469,33	9255,00
475,86	9278,00
482,39	9084,00
488,91	9025,00
495,42	9075,00
501,93	9091,00
508,42	9023,00
514,91	8853,00
521,40	8817,00
527,87	8834,00
534,34	8779,00
540,80	8848,00
547,25	8962,00
553,70	8980,00
560,14	8883,00
566,57	9004,00
573,00	8889,00
579,41	8950,00
585,83	8907,00
592,23	8847,00
598,62	8905,00
605,01	8839,00
611,40	8871,00
617,77	8884,00
624,14	8710,00
630,50	8700,00
636,85	8701,00
643,20	8712,00
649,54	8532,00
655,87	8598,00
662,20	8554,00
668,52	8497,00
674,83	8437,00
681,13	8395,00
687,43	8473,00
693,72	8338,00
700,00	8399,00
706,28	8291,00
712,55	8376,00
718,81	8354,00
725,07	8304,00
731,32	8469,00
737,56	8527,00
743,79	8375,00
750,02	8532,00
756,24	8200,00
762,46	8345,00
768,67	8322,00
774,87	8278,00
781,06	8291,00
787,25	8290,00
793,43	8332,00
799,60	8342,00
805,77	8393,00
811,93	8333,00
818,08	8412,00
824,23	8291,00
830,37	8286,00
836,50	8193,00
842,63	8095,00
848,75	8137,00
854,87	8146,00
860,97	8196,00
867,07	7957,00
873,17	8039,00
879,25	7982,00
885,33	8036,00
891,41	7933,00
897,47	7966,00
903,53	7816,00
909,59	7999,00
915,63	7988,00
921,67	7935,00
927,71	7655,00
933,74	7880,00
939,76	7706,00
945,77	7789,00
951,78	7879,00
957,78	7797,00
963,78	7773,00
969,77	7869,00
975,75	7745,00
981,72	7760,00
987,69	8275,00
993,66	7936,00
999,61	7773,00
1005,56	7843,00
1011,51	7633,00
1017,44	7859,00
1023,37	7739,00
1029,30	7846,00
1035,22	7827,00
1041,13	7838,00
1047,03	7948,00
1052,93	7832,00
1058,83	8194,00
1064,71	8174,00
1070,59	8118,00
1076,47	7882,00
1082,33	7820,00
1088,20	7725,00
1094,05	7642,00
1099,90	7595,00
1105,74	7571,00
1111,58	7641,00
1117,41	7608,00
1123,23	7904,00
1129,05	8143,00
1134,86	8032,00
1140,67	7779,00
1146,47	7653,00
1152,26	7763,00
1158,05	7708,00
1163,83	7563,00
1169,60	7715,00
1175,37	7454,00
1181,13	7548,00
1186,89	7678,00
1192,64	7610,00
1198,38	7773,00
1204,12	7516,00
1209,85	7539,00
1215,58	7545,00
1221,30	7703,00
1227,02	7613,00
1232,72	7508,00
1238,43	7631,00
1244,12	7475,00
1249,81	7602,00
1255,50	7639,00
1261,17	7722,00
1266,85	7622,00
1272,51	7624,00
1278,17	7700,00
1283,83	7785,00
1289,47	7925,00
1295,12	8231,00
1300,75	8237,00
1306,38	7952,00
1312,01	7714,00
1317,63	7644,00
1323,24	7460,00
1328,85	7520,00
1334,45	7489,00
1340,04	7566,00
1345,63	7547,00
1351,22	7578,00
1356,80	7549,00
1362,37	7538,00
1367,93	7673,00
1373,49	7810,00
1379,05	7528,00
1384,60	7620,00
1390,14	7635,00
1395,68	7571,00
1401,21	7657,00
1406,74	7529,00
1412,26	7804,00
1417,77	7954,00
1423,28	7849,00
1428,78	7900,00
1434,28	8192,00
1439,77	8262,00
1445,26	8233,00
1450,74	8102,00
1456,22	8073,00
1461,68	7989,00
1467,15	7822,00
1472,61	7681,00
1478,06	7545,00
1483,51	7552,00
1488,95	7440,00
1494,38	7448,00
1499,81	7382,00
1505,24	7201,00
1510,65	7132,00
1516,07	7207,00
1521,48	7135,00
1526,88	6992,00
1532,27	7101,00
1537,67	6902,00
1543,05	6931,00
1548,43	6914,00
1553,81	7077,00
1559,18	6751,00
1564,54	6866,00
1569,90	6762,00
1575,25	6705,00
1580,60	6716,00
1585,94	6664,00
1591,28	6734,00
1596,61	6700,00
1601,93	6720,00
1607,25	6736,00
1612,57	6747,00
1617,88	6623,00
1623,18	6695,00
1628,48	6595,00
1633,77	6513,00
1639,06	6567,00
1644,34	6560,00
1649,62	6360,00
1654,89	6430,00
1660,16	6385,00
1665,42	6506,00
1670,67	6414,00
1675,92	6293,00
1681,17	6354,00
1686,41	6213,00
1691,64	6254,00
1696,87	6261,00
1702,10	6271,00
1707,32	6272,00
1712,53	6058,00
1717,74	6090,00
1722,94	6040,00
1728,14	6050,00
1733,33	6016,00
1738,52	5917,00
1743,70	5935,00
1748,88	5800,00
1754,05	5977,00
1759,22	5844,00
1764,38	5963,00
1769,53	5822,00
1774,69	5793,00
1779,83	5614,00
1784,97	5623,00
1790,11	5553,00
1795,24	5691,00
1800,36	5570,00
1805,48	5561,00
1810,60	5736,00
1815,71	5516,00
1820,82	5556,00
1825,92	5605,00
1831,01	5529,00
1836,10	5501,00
1841,19	5606,00
1846,26	5340,00
1851,34	5481,00
1856,41	5451,00
1861,47	5488,00
1866,53	5562,00
1871,59	5397,00
1876,64	5454,00
1881,68	5360,00
1886,72	5266,00
1891,76	5219,00
1896,79	5165,00
1901,81	5176,00
1906,83	5144,00
1911,85	5059,00
1916,86	5013,00
1921,86	4892,00
1926,86	4963,00
1931,86	5054,00
1936,85	4905,00
1941,83	4917,00
1946,81	4780,00
1951,79	4815,00
1956,76	4792,00
1961,72	4753,00
1966,68	4763,00
1971,64	4761,00
1976,59	4729,00
1981,54	4783,00
1986,48	4721,00
1991,42	4548,00
1996,35	4765,00
2001,27	4611,00
2006,20	4508,00
2011,11	4687,00
2016,03	4546,00
2020,93	4529,00
2025,84	4580,00
2030,73	4497,00
2035,63	4497,00
2040,52	4464,00
2045,40	4523,00
2050,28	4395,00
2055,15	4354,00
2060,02	4347,00
2064,89	4324,00
2069,75	4434,00
2074,60	4293,00
2079,46	4192,00
2084,30	4261,00
2089,14	4319,00
2093,98	4431,00
2098,81	4333,00
2103,64	4256,00
2108,46	4326,00
2113,28	4327,00
2118,09	4229,00
2122,90	4280,00
2127,70	4246,00
2132,50	4162,00
2137,30	4180,00
2142,09	4111,00
2146,87	4093,00
2151,66	4052,00
2156,43	4070,00
2161,20	4150,00
2165,97	4051,00
2170,73	3988,00
2175,49	4099,00
2180,24	4027,00
2184,99	4027,00
2189,74	4071,00
2194,48	3916,00
2199,21	4045,00
2203,94	3955,00
2208,67	3772,00
2213,39	3753,00
2218,11	3893,00
2222,82	3750,00
2227,53	3844,00
2232,23	3798,00
2236,93	3799,00
2241,63	3599,00
2246,32	3850,00
2251,00	3756,00
2255,68	3635,00
2260,36	3619,00
2265,03	3656,00
2269,70	3606,00
2274,36	3580,00
2279,02	3666,00
2283,68	3515,00
2288,33	3643,00
2292,97	3606,00
2297,61	3514,00
2302,25	3538,00
2306,88	3484,00
2311,51	3461,00
2316,14	3409,00
2320,75	3420,00
2325,37	3477,00
2329,98	3402,00
2334,59	3473,00
2339,19	3345,00
2343,79	3292,00
2348,38	3323,00
2352,97	3213,00
2357,55	3268,00
2362,13	3195,00
2366,71	3233,00
2371,28	3255,00
2375,85	3170,00
2380,41	3254,00
2384,97	3100,00
2389,52	3188,00
2394,07	3140,00
2398,62	3069,00
2403,16	3193,00
2407,70	2986,00
2412,23	2977,00
2416,76	3082,00
2421,29	3141,00
2425,81	3051,00
2430,32	3038,00
2434,84	2914,00
2439,34	2882,00
2443,85	3024,00
2448,35	2850,00
2452,84	2917,00
2457,33	2852,00
2461,82	2792,00
2466,30	2807,00
2470,78	2794,00
2475,25	2750,00
2479,72	2694,00
2484,19	2793,00
2488,65	2715,00
2493,11	2658,00
2497,56	2740,00
2502,01	2622,00
2506,46	2703,00
2510,90	2675,00
2515,34	2612,00
2519,77	2622,00
2524,20	2631,00
2528,62	2662,00
2533,04	2603,00
2537,46	2640,00
2541,87	2532,00
2546,28	2497,00
2550,68	2575,00
2555,08	2441,00
2559,48	2452,00
2563,87	2422,00
2568,26	2329,00
2572,64	2501,00
2577,02	2427,00
2581,40	2202,00
2585,77	2384,00
2590,14	2244,00
2594,50	2252,00
2598,86	2304,00
2603,22	2276,00
2607,57	2164,00
2611,92	2200,00
2616,26	2222,00
2620,60	2256,00
2624,94	2183,00
2629,27	2272,00
2633,60	2066,00
2637,92	2222,00
2642,24	2170,00
2646,56	2087,00
2650,87	2050,00
2655,18	2148,00
2659,48	2100,00
2663,78	2152,00
2668,08	2059,00
2672,37	2125,00
2676,66	2021,00
2680,95	2006,00
2685,23	2188,00
2689,50	1995,00
2693,78	2112,00
2698,05	2059,00
2702,31	2002,00
2706,57	2081,00
2710,83	2158,00
2715,08	2239,00
2719,33	2093,00
2723,58	2161,00
2727,82	2139,00
2732,06	2067,00
2736,29	2107,00
2740,53	2016,00
2744,75	1973,00
2748,97	1890,00
2753,19	2013,00
2757,41	1974,00
2761,62	1968,00
2765,83	1940,00
2770,03	1889,00
2774,23	2030,00
2778,43	1895,00
2782,62	1846,00
2786,81	1865,00
2791,00	1879,00
2795,18	1856,00
2799,35	1962,00
2803,53	1882,00
2807,70	1913,00
2811,86	1984,00
2816,03	2057,00
2820,19	2027,00
2824,34	1900,00
2828,49	1921,00
2832,64	2041,00
2836,78	2230,00
2840,92	2241,00
2845,06	2519,00
2849,19	2696,00
2853,32	2710,00
2857,45	2622,00
2861,57	2669,00
2865,69	2620,00
2869,80	2494,00
2873,91	2575,00
2878,02	2600,00
2882,12	2640,00
2886,22	2721,00
2890,32	2584,00
2894,41	2525,00
2898,50	2460,00
2902,58	2497,00
2906,67	2314,00
2910,74	2166,00
2914,82	2191,00
2918,89	2147,00
2922,96	1999,00
2927,02	1997,00
2931,08	1916,00
2935,13	1791,00
2939,19	1778,00
2943,24	1721,00
2947,28	1772,00
2951,32	1594,00
2955,36	1661,00
2959,40	1635,00
2963,43	1550,00
2967,46	1555,00
2971,48	1563,00
2975,50	1414,00
2979,52	1507,00
2983,53	1465,00
2987,54	1320,00
2991,55	1365,00
2995,55	1335,00
2999,55	1356,00
3003,54	1279,00
3007,54	1338,00
3011,53	1196,00
3015,51	1294,00
3019,49	1267,00
3023,47	1175,00
3027,45	1242,00
3031,42	1216,00
3035,39	1220,00
3039,35	1213,00
3043,31	1203,00
3047,27	1186,00
3051,22	1142,00
3055,17	1128,00
3059,12	1107,00
3063,06	1209,00
3067,00	1079,00
3070,94	1035,00
3074,87	1088,00
3078,80	1093,00
3082,73	1102,00
3086,65	1058,00
3090,57	1044,00
3094,49	1017,00
3098,40	1089,00
3102,31	946,00
3106,22	1085,00
3110,12	980,00
3114,02	894,00
3117,92	980,00
3121,81	1005,00
3125,70	1001,00
3129,58	984,00
3133,47	813,00
3137,34	1015,00
3141,22	999,00
3145,09	922,00
3148,96	929,00
3152,83	946,00
3156,69	941,00
3160,55	975,00
3164,40	1004,00
3168,26	910,00
3172,10	980,00
3175,95	910,00
3179,79	975,00
3183,63	932,00
3187,47	896,00
3191,30	942,00
3195,13	892,00
3198,95	719,00
3202,78	861,00
3206,60	784,00
3210,41	744,00
3214,23	794,00
3218,03	853,00
3221,84	769,00
3225,64	856,00
3229,44	701,00
3233,24	845,00
3237,03	808,00
3240,82	714,00
3244,61	801,00
3248,39	795,00
3252,17	827,00
3255,95	797,00
3259,72	718,00
3263,49	996,00
3267,26	739,00
3271,03	770,00
3274,79	775,00
3278,54	800,00
3282,30	658,00
3286,05	819,00
3289,80	746,00
3293,54	780,00
3297,29	777,00
3301,02	759,00
3304,76	719,00
3308,49	720,00
3312,22	619,00
3315,95	723,00
3319,67	708,00
3323,39	789,00
3327,10	697,00
3330,82	625,00
3334,53	612,00
3338,24	673,00
3341,94	630,00
3345,64	721,00
3349,34	697,00
3353,03	618,00
3356,72	634,00
3360,41	649,00
3364,10	548,00
3367,78	632,00
3371,46	551,00
3375,13	620,00
3378,81	651,00
3382,48	534,00
3386,14	716,00
3389,81	622,00
3393,47	587,00
3397,12	627,00
3400,78	629,00
3404,43	558,00
3408,08	591,00
3411,72	556,00
3415,36	602,00
3419,00	507,00
3422,64	514,00
3426,27	536,00
3429,90	585,00
3433,53	513,00
3437,15	535,00
3440,77	491,00
3444,39	511,00
3448,00	602,00
3451,62	470,00
3455,22	593,00
3458,83	510,00
3462,43	533,00
3466,03	550,00
3469,63	520,00
3473,22	465,00
3476,81	424,00
3480,40	583,00
3483,99	501,00
3487,57	452,00
3491,15	517,00
3494,72	597,00
3498,29	552,00
3501,86	394,00
3505,43	442,00
3508,99	473,00
3512,56	417,00
3516,11	608,00
3519,67	514,00
3523,22	442,00
3526,77	420,00
3530,32	656,00
3533,86	557,00
3537,40	546,00
3540,94	444,00
3544,47	428,00
3548,00	379,00
3551,53	540,00
3555,06	460,00
3558,58	484,00
3562,10	463,00
3565,62	389,00
3569,13	467,00
3572,64	573,00
3576,15	424,00
3579,66	443,00
3583,16	466,00
3586,66	458,00
3590,16	438,00
3593,65	394,00
3597,14	447,00
3600,63	452,00
3604,11	457,00
3607,60	429,00
3611,08	477,00
3614,55	481,00
3618,03	337,00
3621,50	291,00
3624,97	362,00
3628,43	313,00
3631,90	337,00
3635,36	356,00
3638,81	445,00
3642,27	363,00
3645,72	343,00
3649,17	336,00
3652,61	424,00
3656,06	376,00
3659,50	410,00
3662,93	402,00
3666,37	412,00
3669,80	416,00
3673,23	423,00
3676,65	337,00
3680,08	290,00
3683,50	358,00
3686,92	361,00
3690,33	361,00
3693,74	394,00
3697,15	443,00
3700,56	414,00
3703,96	341,00
3707,36	243,00
3710,76	367,00
3714,16	353,00
3717,55	393,00
3720,94	297,00
3724,33	366,00
3727,71	354,00
3731,10	388,00
3734,48	361,00
3737,85	335,00
3741,23	325,00
3744,60	352,00
3747,97	295,00
3751,33	378,00
3754,69	301,00
3758,05	322,00
3761,41	305,00
3764,77	334,00
3768,12	377,00
3771,47	332,00
3774,82	306,00
3778,16	-3,00
3781,50	7,00
3784,84	-3,00
3788,18	4,00
>>>>>End Processed Spectral Data<<<<<
