SpectraSuite Data File
++++++++++++++++++++++++++++++++++++
Date: Mon Jan 05 16:25:43 ICT 2026
User: Administrator
Dark Spectrum Present: Yes
Reference Spectrum Present: No
Number of Sampled Component Spectra: 1
Spectrometers: MAYP113682
Integration Time (usec): 3000000 (MAYP113682)
Spectra Averaged: 1 (MAYP113682)
Boxcar Smoothing: 0 (MAYP113682)
Correct for Electrical Dark: No (MAYP113682)
Strobe/Lamp Enabled: No (MAYP113682)
Correct for Detector Non-linearity: No (MAYP113682)
Correct for Stray Light: No (MAYP113682)
Number of Pixels in Processed Spectrum: 2068
>>>>>Begin Processed Spectral Data<<<<<
-37534,58	16,00
-37414,56	11,00
-37295,11	5,00
-37176,24	-3,00
-37057,95	259,00
-36940,22	323,00
-36823,05	398,00
-36706,45	359,00
-36590,40	395,00
-36474,90	325,00
-36359,95	442,00
-36245,55	410,00
-36131,68	366,00
-36018,35	394,00
-35905,55	435,00
-35793,29	436,00
-35681,54	389,00
-35570,32	338,00
-35459,62	339,00
-35349,43	502,00
-35239,75	445,00
-35130,58	410,00
-35021,91	396,00
-34913,74	391,00
-34806,07	496,00
-34698,89	509,00
-34592,20	364,00
-34486,00	389,00
-34380,28	501,00
-34275,04	360,00
-34170,27	386,00
-34065,98	506,00
-33962,16	512,00
-33858,81	509,00
-33755,92	403,00
-33653,49	603,00
-33551,52	497,00
-33450,01	453,00
-33348,94	484,00
-33248,33	419,00
-33148,16	441,00
-33048,43	432,00
-32949,14	524,00
-32850,29	522,00
-32751,87	397,00
-32653,89	430,00
-32556,33	496,00
-32459,20	452,00
-32362,49	461,00
-32266,19	372,00
-32170,32	326,00
-32074,86	490,00
-31979,82	430,00
-31885,18	518,00
-31790,95	441,00
-31697,12	534,00
-31603,69	478,00
-31510,67	563,00
-31418,04	531,00
-31325,80	444,00
-31233,95	344,00
-31142,49	437,00
-31051,42	407,00
-30960,73	472,00
-30870,43	456,00
-30780,50	440,00
-30690,95	501,00
-30601,77	500,00
-30512,97	401,00
-30424,53	451,00
-30336,46	460,00
-30248,76	461,00
-30161,42	513,00
-30074,44	370,00
-29987,81	419,00
-29901,55	486,00
-29815,63	417,00
-29730,07	411,00
-29644,86	550,00
-29560,00	515,00
-29475,48	478,00
-29391,30	564,00
-29307,47	519,00
-29223,97	441,00
-29140,81	503,00
-29057,99	473,00
-28975,50	440,00
-28893,34	575,00
-28811,51	420,00
-28730,00	432,00
-28648,82	493,00
-28567,97	514,00
-28487,43	449,00
-28407,21	456,00
-28327,32	430,00
-28247,73	511,00
-28168,46	480,00
-28089,50	485,00
-28010,85	397,00
-27932,51	452,00
-27854,48	457,00
-27776,75	419,00
-27699,32	470,00
-27622,19	437,00
-27545,37	450,00
-27468,84	510,00
-27392,60	526,00
-27316,66	437,00
-27241,01	431,00
-27165,66	392,00
-27090,59	322,00
-27015,81	514,00
-26941,31	461,00
-26867,10	404,00
-26793,17	518,00
-26719,52	487,00
-26646,15	469,00
-26573,06	449,00
-26500,24	477,00
-26427,70	524,00
-26355,43	352,00
-26283,43	475,00
-26211,71	458,00
-26140,25	455,00
-26069,06	473,00
-25998,13	408,00
-25927,46	418,00
-25857,06	394,00
-25786,92	376,00
-25717,04	392,00
-25647,42	550,00
-25578,05	436,00
-25508,94	409,00
-25440,09	515,00
-25371,48	432,00
-25303,13	506,00
-25235,02	456,00
-25167,17	398,00
-25099,56	447,00
-25032,19	476,00
-24965,07	394,00
-24898,20	433,00
-24831,56	392,00
-24765,17	418,00
-24699,01	373,00
-24633,10	443,00
-24567,41	476,00
-24501,97	333,00
-24436,75	470,00
-24371,77	459,00
-24307,03	472,00
-24242,51	481,00
-24178,22	388,00
-24114,16	358,00
-24050,32	487,00
-23986,71	454,00
-23923,32	440,00
-23860,16	448,00
-23797,22	442,00
-23734,50	476,00
-23672,00	399,00
-23609,71	400,00
-23547,65	387,00
-23485,80	508,00
-23424,16	339,00
-23362,74	550,00
-23301,53	459,00
-23240,54	443,00
-23179,75	389,00
-23119,17	359,00
-23058,80	425,00
-22998,64	512,00
-22938,68	414,00
-22878,93	505,00
-22819,39	345,00
-22760,04	480,00
-22700,90	409,00
-22641,96	532,00
-22583,22	433,00
-22524,68	400,00
-22466,33	402,00
-22408,19	473,00
-22350,23	355,00
-22292,48	420,00
-22234,92	418,00
-22177,55	502,00
-22120,37	495,00
-22063,38	462,00
-22006,58	424,00
-21949,98	399,00
-21893,56	289,00
-21837,33	482,00
-21781,28	423,00
-21725,42	418,00
-21669,74	479,00
-21614,25	457,00
-21558,94	362,00
-21503,81	525,00
-21448,86	542,00
-21394,10	460,00
-21339,51	427,00
-21285,10	339,00
-21230,86	369,00
-21176,81	479,00
-21122,93	453,00
-21069,22	345,00
-21015,69	457,00
-20962,33	473,00
-20909,14	442,00
-20856,13	448,00
-20803,28	464,00
-20750,61	491,00
-20698,10	392,00
-20645,76	377,00
-20593,59	461,00
-20541,59	497,00
-20489,75	449,00
-20438,07	334,00
-20386,56	468,00
-20335,22	355,00
-20284,03	391,00
-20233,01	523,00
-20182,15	397,00
-20131,45	422,00
-20080,91	344,00
-20030,52	422,00
-19980,30	453,00
-19930,23	445,00
-19880,32	468,00
-19830,56	458,00
-19780,96	387,00
-19731,52	369,00
-19682,23	409,00
-19633,09	427,00
-19584,10	303,00
-19535,26	426,00
-19486,58	532,00
-19438,04	409,00
-19389,66	456,00
-19341,42	398,00
-19293,33	381,00
-19245,39	420,00
-19197,60	500,00
-19149,95	421,00
-19102,45	457,00
-19055,09	417,00
-19007,87	389,00
-18960,80	452,00
-18913,87	415,00
-18867,09	366,00
-18820,44	467,00
-18773,94	486,00
-18727,57	487,00
-18681,35	351,00
-18635,26	443,00
-18589,31	428,00
-18543,50	395,00
-18497,83	428,00
-18452,29	436,00
-18406,89	381,00
-18361,63	418,00
-18316,50	479,00
-18271,50	396,00
-18226,63	571,00
-18181,90	469,00
-18137,30	514,00
-18092,84	385,00
-18048,50	476,00
-18004,29	451,00
-17960,22	287,00
-17916,27	405,00
-17872,45	442,00
-17828,76	563,00
-17785,20	455,00
-17741,77	454,00
-17698,46	450,00
-17655,28	413,00
-17612,22	457,00
-17569,29	378,00
-17526,48	464,00
-17483,79	494,00
-17441,23	375,00
-17398,79	423,00
-17356,48	377,00
-17314,28	498,00
-17272,21	430,00
-17230,26	496,00
-17188,42	426,00
-17146,71	487,00
-17105,12	429,00
-17063,64	408,00
-17022,28	463,00
-16981,04	473,00
-16939,92	435,00
-16898,91	425,00
-16858,02	414,00
-16817,25	434,00
-16776,59	457,00
-16736,04	424,00
-16695,61	466,00
-16655,29	356,00
-16615,09	456,00
-16574,99	355,00
-16535,01	459,00
-16495,15	463,00
-16455,39	514,00
-16415,74	397,00
-16376,21	380,00
-16336,78	454,00
-16297,46	434,00
-16258,26	371,00
-16219,16	421,00
-16180,17	432,00
-16141,28	480,00
-16102,51	455,00
-16063,84	379,00
-16025,27	496,00
-15986,82	470,00
-15948,46	397,00
-15910,22	457,00
-15872,07	432,00
-15834,04	418,00
-15796,10	417,00
-15758,27	533,00
-15720,54	403,00
-15682,91	442,00
-15645,39	599,00
-15607,97	455,00
-15570,64	417,00
-15533,42	576,00
-15496,30	439,00
-15459,28	464,00
-15422,36	446,00
-15385,54	401,00
-15348,82	448,00
-15312,19	516,00
-15275,66	368,00
-15239,23	441,00
-15202,90	396,00
-15166,67	461,00
-15130,53	517,00
-15094,48	470,00
-15058,54	410,00
-15022,68	402,00
-14986,93	384,00
-14951,26	464,00
-14915,69	443,00
-14880,22	356,00
-14844,84	408,00
-14809,55	429,00
-14774,35	430,00
-14739,25	374,00
-14704,24	523,00
-14669,32	445,00
-14634,49	361,00
-14599,75	472,00
-14565,10	416,00
-14530,55	443,00
-14496,08	403,00
-14461,70	468,00
-14427,41	419,00
-14393,21	382,00
-14359,10	392,00
-14325,07	414,00
-14291,14	359,00
-14257,29	379,00
-14223,52	395,00
-14189,85	486,00
-14156,26	413,00
-14122,76	407,00
-14089,34	371,00
-14056,01	494,00
-14022,76	411,00
-13989,60	451,00
-13956,52	546,00
-13923,53	414,00
-13890,62	387,00
-13857,79	431,00
-13825,05	354,00
-13792,39	337,00
-13759,81	466,00
-13727,31	464,00
-13694,90	421,00
-13662,57	466,00
-13630,31	487,00
-13598,14	423,00
-13566,05	391,00
-13534,05	478,00
-13502,12	399,00
-13470,27	398,00
-13438,50	526,00
-13406,80	479,00
-13375,19	482,00
-13343,66	428,00
-13312,20	494,00
-13280,83	467,00
-13249,53	472,00
-13218,30	316,00
-13187,16	431,00
-13156,09	616,00
-13125,10	429,00
-13094,18	489,00
-13063,34	478,00
-13032,58	421,00
-13001,89	418,00
-12971,28	498,00
-12940,74	413,00
-12910,27	501,00
-12879,88	446,00
-12849,57	525,00
-12819,33	500,00
-12789,16	439,00
-12759,06	493,00
-12729,04	344,00
-12699,09	370,00
-12669,21	437,00
-12639,41	540,00
-12609,68	420,00
-12580,02	436,00
-12550,43	461,00
-12520,91	404,00
-12491,46	427,00
-12462,08	356,00
-12432,77	394,00
-12403,54	325,00
-12374,37	438,00
-12345,27	485,00
-12316,24	417,00
-12287,29	432,00
-12258,40	435,00
-12229,57	511,00
-12200,82	334,00
-12172,14	451,00
-12143,52	354,00
-12114,97	400,00
-12086,49	484,00
-12058,07	502,00
-12029,73	435,00
-12001,44	557,00
-11973,23	415,00
-11945,08	417,00
-11917,00	451,00
-11888,98	426,00
-11861,03	527,00
-11833,15	443,00
-11805,32	492,00
-11777,57	428,00
-11749,88	483,00
-11722,25	381,00
-11694,69	348,00
-11667,19	447,00
-11639,75	460,00
-11612,38	385,00
-11585,07	388,00
-11557,83	412,00
-11530,65	559,00
-11503,53	335,00
-11476,47	458,00
-11449,48	458,00
-11422,54	465,00
-11395,67	412,00
-11368,86	428,00
-11342,11	414,00
-11315,43	433,00
-11288,80	409,00
-11262,23	477,00
-11235,73	450,00
-11209,28	576,00
-11182,90	372,00
-11156,57	391,00
-11130,31	580,00
-11104,10	444,00
-11077,96	461,00
-11051,87	376,00
-11025,84	374,00
-10999,87	457,00
-10973,96	406,00
-10948,11	396,00
-10922,31	501,00
-10896,58	384,00
-10870,90	465,00
-10845,28	476,00
-10819,71	321,00
-10794,20	490,00
-10768,75	471,00
-10743,36	492,00
-10718,02	448,00
-10692,74	353,00
-10667,52	432,00
-10642,35	470,00
-10617,24	467,00
-10592,18	495,00
-10567,18	376,00
-10542,23	432,00
-10517,34	413,00
-10492,51	508,00
-10467,72	345,00
-10443,00	434,00
-10418,32	445,00
-10393,70	474,00
-10369,14	463,00
-10344,63	318,00
-10320,17	530,00
-10295,77	452,00
-10271,42	408,00
-10247,12	491,00
-10222,88	599,00
-10198,68	384,00
-10174,54	543,00
-10150,46	592,00
-10126,42	572,00
-10102,44	431,00
-10078,51	455,00
-10054,63	538,00
-10030,80	551,00
-10007,03	524,00
-9983,30	531,00
-9959,63	491,00
-9936,01	587,00
-9912,44	538,00
-9888,92	586,00
-9865,44	463,00
-9842,02	505,00
-9818,65	513,00
-9795,33	468,00
-9772,06	448,00
-9748,84	423,00
-9725,67	409,00
-9702,55	499,00
-9679,47	556,00
-9656,45	552,00
-9633,47	506,00
-9610,55	572,00
-9587,67	602,00
-9564,84	673,00
-9542,06	581,00
-9519,32	739,00
-9496,64	767,00
-9474,00	601,00
-9451,41	742,00
-9428,87	643,00
-9406,37	618,00
-9383,92	520,00
-9361,52	413,00
-9339,17	752,00
-9316,86	565,00
-9294,60	792,00
-9272,38	881,00
-9250,21	930,00
-9228,09	927,00
-9206,01	989,00
-9183,98	848,00
-9162,00	635,00
-9140,06	824,00
-9118,16	704,00
-9096,31	750,00
-9074,51	810,00
-9052,75	958,00
-9031,04	816,00
-9009,37	789,00
-8987,74	687,00
-8966,16	750,00
-8944,63	606,00
-8923,14	742,00
-8901,69	629,00
-8880,29	627,00
-8858,93	823,00
-8837,61	797,00
-8816,34	892,00
-8795,11	851,00
-8773,92	662,00
-8752,78	825,00
-8731,68	677,00
-8710,62	807,00
-8689,61	695,00
-8668,63	771,00
-8647,70	785,00
-8626,82	827,00
-8605,97	877,00
-8585,17	771,00
-8564,41	735,00
-8543,69	684,00
-8523,01	665,00
-8502,37	858,00
-8481,78	759,00
-8461,23	723,00
-8440,71	776,00
-8420,24	702,00
-8399,81	986,00
-8379,42	820,00
-8359,08	796,00
-8338,77	669,00
-8318,50	523,00
-8298,27	572,00
-8278,09	695,00
-8257,94	725,00
-8237,83	837,00
-8217,76	809,00
-8197,74	913,00
-8177,75	896,00
-8157,80	724,00
-8137,89	665,00
-8118,02	680,00
-8098,19	688,00
-8078,40	689,00
-8058,65	688,00
-8038,93	744,00
-8019,26	807,00
-7999,62	809,00
-7980,02	674,00
-7960,46	673,00
-7940,94	557,00
-7921,46	562,00
-7902,01	580,00
-7882,60	724,00
-7863,23	700,00
-7843,90	649,00
-7824,61	704,00
-7805,35	807,00
-7786,13	791,00
-7766,95	774,00
-7747,80	731,00
-7728,69	694,00
-7709,62	743,00
-7690,59	775,00
-7671,59	788,00
-7652,63	660,00
-7633,70	763,00
-7614,81	780,00
-7595,96	676,00
-7577,15	625,00
-7558,37	607,00
-7539,62	642,00
-7520,91	609,00
-7502,24	663,00
-7483,60	740,00
-7465,00	648,00
-7446,44	771,00
-7427,91	545,00
-7409,41	601,00
-7390,95	599,00
-7372,53	495,00
-7354,14	530,00
-7335,78	535,00
-7317,46	591,00
-7299,18	503,00
-7280,92	531,00
-7262,71	729,00
-7244,52	643,00
-7226,38	660,00
-7208,26	602,00
-7190,18	530,00
-7172,14	570,00
-7154,12	615,00
-7136,15	603,00
-7118,20	614,00
-7100,29	744,00
-7082,41	650,00
-7064,57	475,00
-7046,76	619,00
-7028,98	384,00
-7011,24	567,00
-6993,53	344,00
-6975,85	500,00
-6958,20	439,00
-6940,59	421,00
-6923,01	382,00
-6905,46	549,00
-6887,94	378,00
-6870,46	-1605,00
-6853,01	648,00
-6835,59	491,00
-6818,21	487,00
-6800,85	407,00
-6783,53	395,00
-6766,24	375,00
-6748,98	478,00
-6731,76	405,00
-6714,56	345,00
-6697,40	354,00
-6680,26	383,00
-6663,16	329,00
-6646,09	445,00
-6629,05	566,00
-6612,05	530,00
-6595,07	434,00
-6578,13	550,00
-6561,21	383,00
-6544,33	424,00
-6527,47	298,00
-6510,65	375,00
-6493,86	276,00
-6477,10	314,00
-6460,36	410,00
-6443,66	310,00
-6426,99	363,00
-6410,35	323,00
-6393,74	454,00
-6377,16	287,00
-6360,61	386,00
-6344,09	289,00
-6327,59	321,00
-6311,13	438,00
-6294,70	436,00
-6278,29	328,00
-6261,92	442,00
-6245,58	428,00
-6229,26	508,00
-6212,97	463,00
-6196,72	365,00
-6180,49	464,00
-6164,29	340,00
-6148,12	491,00
-6131,98	386,00
-6115,86	309,00
-6099,78	320,00
-6083,72	294,00
-6067,69	342,00
-6051,69	372,00
-6035,72	404,00
-6019,78	348,00
-6003,87	409,00
-5987,98	409,00
-5972,12	456,00
-5956,29	387,00
-5940,49	274,00
-5924,71	525,00
-5908,96	375,00
-5893,24	434,00
-5877,55	364,00
-5861,89	398,00
-5846,25	276,00
-5830,64	366,00
-5815,05	323,00
-5799,50	315,00
-5783,97	432,00
-5768,47	401,00
-5752,99	500,00
-5737,55	358,00
-5722,12	326,00
-5706,73	408,00
-5691,36	393,00
-5676,02	400,00
-5660,71	305,00
-5645,42	385,00
-5630,16	410,00
-5614,92	377,00
-5599,71	372,00
-5584,53	412,00
-5569,37	467,00
-5554,24	1297,00
-5539,14	370,00
-5524,06	400,00
-5509,01	446,00
-5493,98	356,00
-5478,98	343,00
-5464,00	292,00
-5449,05	391,00
-5434,13	363,00
-5419,23	334,00
-5404,36	359,00
-5389,51	364,00
-5374,69	361,00
-5359,89	449,00
-5345,12	552,00
-5330,37	503,00
-5315,65	467,00
-5300,95	466,00
-5286,28	419,00
-5271,63	320,00
-5257,01	403,00
-5242,41	410,00
-5227,84	265,00
-5213,29	448,00
-5198,76	310,00
-5184,26	367,00
-5169,79	312,00
-5155,33	381,00
-5140,91	360,00
-5126,51	355,00
-5112,13	406,00
-5097,77	394,00
-5083,44	493,00
-5069,13	372,00
-5054,85	406,00
-5040,59	400,00
-5026,36	452,00
-5012,15	475,00
-4997,96	442,00
-4983,80	424,00
-4969,66	428,00
-4955,54	433,00
-4941,44	483,00
-4927,37	383,00
-4913,33	427,00
-4899,30	349,00
-4885,30	473,00
-4871,33	471,00
-4857,37	401,00
-4843,44	318,00
-4829,53	563,00
-4815,65	482,00
-4801,79	276,00
-4787,95	530,00
-4774,13	385,00
-4760,34	359,00
-4746,56	477,00
-4732,82	409,00
-4719,09	359,00
-4705,38	580,00
-4691,70	508,00
-4678,04	529,00
-4664,41	479,00
-4650,79	556,00
-4637,20	314,00
-4623,63	374,00
-4610,08	534,00
-4596,56	369,00
-4583,05	393,00
-4569,57	369,00
-4556,11	483,00
-4542,67	438,00
-4529,25	418,00
-4515,86	436,00
-4502,49	508,00
-4489,13	482,00
-4475,80	553,00
-4462,49	369,00
-4449,21	461,00
-4435,94	473,00
-4422,70	424,00
-4409,47	390,00
-4396,27	495,00
-4383,09	450,00
-4369,93	410,00
-4356,79	399,00
-4343,67	426,00
-4330,58	455,00
-4317,50	494,00
-4304,45	449,00
-4291,41	496,00
-4278,40	494,00
-4265,41	373,00
-4252,44	443,00
-4239,49	400,00
-4226,55	449,00
-4213,65	433,00
-4200,76	516,00
-4187,89	472,00
-4175,04	369,00
-4162,21	387,00
-4149,40	436,00
-4136,61	469,00
-4123,85	444,00
-4111,10	455,00
-4098,37	518,00
-4085,66	491,00
-4072,98	415,00
-4060,31	382,00
-4047,66	524,00
-4035,04	524,00
-4022,43	410,00
-4009,84	404,00
-3997,27	324,00
-3984,72	511,00
-3972,19	441,00
-3959,69	452,00
-3947,20	451,00
-3934,73	396,00
-3922,27	422,00
-3909,84	483,00
-3897,43	468,00
-3885,04	407,00
-3872,67	357,00
-3860,31	388,00
-3847,98	543,00
-3835,66	457,00
-3823,36	479,00
-3811,09	459,00
-3798,83	475,00
-3786,59	488,00
-3774,37	405,00
-3762,17	376,00
-3749,98	385,00
-3737,82	435,00
-3725,67	504,00
-3713,55	433,00
-3701,44	508,00
-3689,35	450,00
-3677,28	466,00
-3665,22	416,00
-3653,19	368,00
-3641,17	378,00
-3629,18	457,00
-3617,20	501,00
-3605,24	372,00
-3593,30	522,00
-3581,37	479,00
-3569,47	525,00
-3557,58	467,00
-3545,71	485,00
-3533,86	489,00
-3522,02	419,00
-3510,21	509,00
-3498,41	431,00
-3486,63	474,00
-3474,87	371,00
-3463,12	394,00
-3451,40	417,00
-3439,69	406,00
-3428,00	464,00
-3416,33	402,00
-3404,67	378,00
-3393,03	446,00
-3381,41	540,00
-3369,81	447,00
-3358,22	528,00
-3346,66	612,00
-3335,10	389,00
-3323,57	361,00
-3312,06	487,00
-3300,56	534,00
-3289,08	396,00
-3277,61	436,00
-3266,16	446,00
-3254,73	420,00
-3243,32	407,00
-3231,92	408,00
-3220,55	427,00
-3209,18	585,00
-3197,84	411,00
-3186,51	475,00
-3175,20	361,00
-3163,90	396,00
-3152,63	524,00
-3141,36	391,00
-3130,12	435,00
-3118,89	474,00
-3107,68	382,00
-3096,49	513,00
-3085,31	368,00
-3074,15	468,00
-3063,00	450,00
-3051,87	462,00
-3040,76	410,00
-3029,67	600,00
-3018,59	535,00
-3007,52	621,00
-2996,48	455,00
-2985,44	478,00
-2974,43	514,00
-2963,43	397,00
-2952,45	496,00
-2941,48	529,00
-2930,53	546,00
-2919,60	327,00
-2908,68	461,00
-2897,78	472,00
-2886,89	515,00
-2876,02	534,00
-2865,17	380,00
-2854,33	439,00
-2843,50	468,00
-2832,70	455,00
-2821,90	390,00
-2811,13	517,00
-2800,37	420,00
-2789,62	294,00
-2778,89	491,00
-2768,18	487,00
-2757,48	515,00
-2746,80	476,00
-2736,13	442,00
-2725,48	520,00
-2714,84	355,00
-2704,22	464,00
-2693,61	377,00
-2683,02	472,00
-2672,45	460,00
-2661,89	434,00
-2651,34	475,00
-2640,81	535,00
-2630,30	495,00
-2619,80	436,00
-2609,31	553,00
-2598,84	406,00
-2588,39	525,00
-2577,95	429,00
-2567,52	430,00
-2557,11	358,00
-2546,71	491,00
-2536,33	537,00
-2525,97	490,00
-2515,62	448,00
-2505,28	489,00
-2494,96	438,00
-2484,65	557,00
-2474,36	621,00
-2464,08	396,00
-2453,82	598,00
-2443,57	394,00
-2433,33	357,00
-2423,11	513,00
-2412,91	499,00
-2402,72	453,00
-2392,54	433,00
-2382,38	460,00
-2372,23	446,00
-2362,09	-2633,00
-2351,97	520,00
-2341,87	369,00
-2331,78	491,00
-2321,70	539,00
-2311,64	528,00
-2301,59	442,00
-2291,55	479,00
-2281,53	523,00
-2271,53	363,00
-2261,53	492,00
-2251,55	418,00
-2241,59	451,00
-2231,64	431,00
-2221,70	444,00
-2211,78	401,00
-2201,87	407,00
-2191,97	459,00
-2182,09	375,00
-2172,22	522,00
-2162,37	411,00
-2152,53	312,00
-2142,70	461,00
-2132,89	400,00
-2123,09	549,00
-2113,30	411,00
-2103,53	436,00
-2093,77	419,00
-2084,02	446,00
-2074,29	501,00
-2064,57	430,00
-2054,86	487,00
-2045,17	546,00
-2035,49	423,00
-2025,82	421,00
-2016,17	421,00
-2006,53	423,00
-1996,91	445,00
-1987,29	350,00
-1977,69	438,00
-1968,11	445,00
-1958,53	472,00
-1948,97	410,00
-1939,42	405,00
-1929,89	420,00
-1920,37	490,00
-1910,86	367,00
-1901,36	492,00
-1891,88	502,00
-1882,41	484,00
-1872,95	472,00
-1863,51	466,00
-1854,08	392,00
-1844,66	496,00
-1835,26	474,00
-1825,86	540,00
-1816,48	315,00
-1807,11	560,00
-1797,76	443,00
-1788,42	437,00
-1779,09	467,00
-1769,77	450,00
-1760,47	524,00
-1751,17	359,00
-1741,89	413,00
-1732,63	486,00
-1723,37	543,00
-1714,13	531,00
-1704,90	411,00
-1695,68	563,00
-1686,48	362,00
-1677,29	437,00
-1668,11	498,00
-1658,94	410,00
-1649,78	461,00
-1640,64	421,00
-1631,51	422,00
-1622,39	553,00
-1613,28	505,00
-1604,19	495,00
-1595,10	427,00
-1586,03	458,00
-1576,97	494,00
-1567,93	445,00
-1558,89	494,00
-1549,87	472,00
-1540,86	454,00
-1531,86	496,00
-1522,87	417,00
-1513,90	455,00
-1504,93	490,00
-1495,98	601,00
-1487,04	575,00
-1478,12	446,00
-1469,20	443,00
-1460,30	444,00
-1451,40	537,00
-1442,52	489,00
-1433,65	572,00
-1424,80	413,00
-1415,95	470,00
-1407,12	591,00
-1398,30	421,00
-1389,48	536,00
-1380,69	368,00
-1371,90	392,00
-1363,12	530,00
-1354,36	589,00
-1345,60	480,00
-1336,86	395,00
-1328,13	536,00
-1319,41	412,00
-1310,70	486,00
-1302,01	387,00
-1293,32	454,00
-1284,65	400,00
-1275,99	543,00
-1267,33	568,00
-1258,69	460,00
-1250,06	392,00
-1241,45	407,00
-1232,84	611,00
-1224,25	503,00
-1215,66	499,00
-1207,09	443,00
-1198,53	436,00
-1189,97	506,00
-1181,43	375,00
-1172,91	482,00
-1164,39	528,00
-1155,88	373,00
-1147,38	362,00
-1138,90	401,00
-1130,43	451,00
-1121,96	446,00
-1113,51	433,00
-1105,07	502,00
-1096,64	544,00
-1088,22	501,00
-1079,81	487,00
-1071,41	497,00
-1063,02	475,00
-1054,65	456,00
-1046,28	444,00
-1037,92	500,00
-1029,58	424,00
-1021,24	457,00
-1012,92	617,00
-1004,61	421,00
-996,30	477,00
-988,01	389,00
-979,73	436,00
-971,46	486,00
-963,20	484,00
-954,95	425,00
-946,71	437,00
-938,48	509,00
-930,26	520,00
-922,06	496,00
-913,86	451,00
-905,67	385,00
-897,49	594,00
-889,33	353,00
-881,17	567,00
-873,02	469,00
-864,89	360,00
-856,76	392,00
-848,65	467,00
-840,54	564,00
-832,45	450,00
-824,36	454,00
-816,29	468,00
-808,22	480,00
-800,17	468,00
-792,12	433,00
-784,09	485,00
-776,06	394,00
-768,05	538,00
-760,04	468,00
-752,05	457,00
-744,07	462,00
-736,09	533,00
-728,13	359,00
-720,17	491,00
-712,23	457,00
-704,29	394,00
-696,37	388,00
-688,45	520,00
-680,55	474,00
-672,65	449,00
-664,77	386,00
-656,89	467,00
-649,03	424,00
-641,17	430,00
-633,32	495,00
-625,49	544,00
-617,66	413,00
-609,84	550,00
-602,03	422,00
-594,23	479,00
-586,45	503,00
-578,67	398,00
-570,90	491,00
-563,14	389,00
-555,39	494,00
-547,65	506,00
-539,91	436,00
-532,19	481,00
-524,48	426,00
-516,78	347,00
-509,08	490,00
-501,40	496,00
-493,72	467,00
-486,06	437,00
-478,40	522,00
-470,76	412,00
-463,12	487,00
-455,49	426,00
-447,87	470,00
-440,26	458,00
-432,66	402,00
-425,07	576,00
-417,49	539,00
-409,92	416,00
-402,35	392,00
-394,80	346,00
-387,25	456,00
-379,72	436,00
-372,19	523,00
-364,67	478,00
-357,17	329,00
-349,67	508,00
-342,18	476,00
-334,69	502,00
-327,22	519,00
-319,76	533,00
-312,30	471,00
-304,86	433,00
-297,42	538,00
-290,00	436,00
-282,58	507,00
-275,17	587,00
-267,77	541,00
-260,37	550,00
-252,99	562,00
-245,62	594,00
-238,25	470,00
-230,90	495,00
-223,55	576,00
-216,21	592,00
-208,88	744,00
-201,56	544,00
-194,25	572,00
-186,94	638,00
-179,65	648,00
-172,36	702,00
-165,08	659,00
-157,81	793,00
-150,55	739,00
-143,30	777,00
-136,06	844,00
-128,82	870,00
-121,60	942,00
-114,38	960,00
-107,17	1158,00
-99,97	1237,00
-92,78	1244,00
-85,60	1325,00
-78,42	1473,00
-71,25	1674,00
-64,10	1897,00
-56,95	2059,00
-49,81	2410,00
-42,67	2952,00
-35,55	3504,00
-28,43	4599,00
-21,33	7370,00
-14,23	22665,00
-7,14	57498,00
-0,05	57284,00
7,02	57012,00
14,09	57319,00
21,14	20219,00
28,19	8659,00
35,23	5689,00
42,27	4449,00
49,29	3732,00
56,31	3168,00
63,32	2812,00
70,32	2433,00
77,31	2132,00
84,29	1814,00
91,27	1798,00
98,23	1722,00
105,19	1670,00
112,14	1859,00
119,09	2916,00
126,02	4703,00
132,95	5878,00
139,87	6140,00
146,78	6401,00
153,68	6400,00
160,58	6205,00
167,46	6189,00
174,34	6275,00
181,21	6227,00
188,08	6243,00
194,93	6205,00
201,78	6233,00
208,62	6446,00
215,45	6421,00
222,27	6372,00
229,09	6365,00
235,90	6365,00
242,70	6341,00
249,49	6310,00
256,27	6225,00
263,05	6237,00
269,82	6235,00
276,58	6362,00
283,33	6189,00
290,08	6135,00
296,82	6139,00
303,55	6146,00
310,27	5930,00
316,98	5946,00
323,69	5993,00
330,39	5912,00
337,08	5995,00
343,76	6005,00
350,44	5891,00
357,11	5886,00
363,77	5924,00
370,42	5945,00
377,07	5867,00
383,71	5968,00
390,34	5836,00
396,96	5946,00
403,58	6009,00
410,19	6113,00
416,79	6013,00
423,38	5907,00
429,97	5986,00
436,55	5906,00
443,12	5755,00
449,68	5677,00
456,24	5662,00
462,79	5616,00
469,33	5722,00
475,86	5559,00
482,39	5609,00
488,91	5556,00
495,42	5701,00
501,93	5526,00
508,42	5560,00
514,91	5402,00
521,40	5436,00
527,87	5536,00
534,34	5325,00
540,80	5347,00
547,25	5485,00
553,70	5409,00
560,14	5403,00
566,57	5422,00
573,00	5507,00
579,41	5523,00
585,83	5457,00
592,23	5339,00
598,62	5380,00
605,01	5310,00
611,40	5319,00
617,77	5318,00
624,14	5271,00
630,50	5305,00
636,85	5170,00
643,20	5224,00
649,54	5082,00
655,87	5140,00
662,20	5068,00
668,52	5103,00
674,83	5181,00
681,13	4964,00
687,43	5056,00
693,72	5015,00
700,00	4965,00
706,28	5042,00
712,55	4948,00
718,81	5041,00
725,07	4977,00
731,32	5051,00
737,56	5100,00
743,79	4972,00
750,02	4980,00
756,24	4950,00
762,46	4980,00
768,67	5128,00
774,87	4903,00
781,06	4906,00
787,25	4922,00
793,43	4854,00
799,60	4842,00
805,77	5009,00
811,93	4784,00
818,08	5056,00
824,23	4854,00
830,37	5047,00
836,50	4913,00
842,63	4846,00
848,75	4797,00
854,87	4772,00
860,97	4853,00
867,07	4626,00
873,17	4691,00
879,25	4745,00
885,33	4792,00
891,41	4739,00
897,47	4687,00
903,53	4657,00
909,59	4740,00
915,63	4702,00
921,67	4655,00
927,71	4542,00
933,74	4643,00
939,76	4517,00
945,77	4636,00
951,78	4675,00
957,78	4498,00
963,78	4674,00
969,77	4541,00
975,75	4564,00
981,72	4490,00
987,69	5244,00
993,66	4555,00
999,61	4667,00
1005,56	4616,00
1011,51	4573,00
1017,44	4580,00
1023,37	4589,00
1029,30	4506,00
1035,22	4642,00
1041,13	4489,00
1047,03	4499,00
1052,93	4569,00
1058,83	4756,00
1064,71	4846,00
1070,59	4677,00
1076,47	4570,00
1082,33	4552,00
1088,20	4614,00
1094,05	4575,00
1099,90	4312,00
1105,74	4409,00
1111,58	4332,00
1117,41	4451,00
1123,23	4575,00
1129,05	4696,00
1134,86	4582,00
1140,67	4464,00
1146,47	4452,00
1152,26	4503,00
1158,05	4301,00
1163,83	4471,00
1169,60	4464,00
1175,37	4408,00
1181,13	4395,00
1186,89	4388,00
1192,64	4400,00
1198,38	4492,00
1204,12	4283,00
1209,85	4416,00
1215,58	4402,00
1221,30	4532,00
1227,02	4505,00
1232,72	4394,00
1238,43	4302,00
1244,12	4353,00
1249,81	4508,00
1255,50	4615,00
1261,17	4478,00
1266,85	4455,00
1272,51	4380,00
1278,17	4437,00
1283,83	4481,00
1289,47	4586,00
1295,12	4706,00
1300,75	4703,00
1306,38	4597,00
1312,01	4557,00
1317,63	4398,00
1323,24	4490,00
1328,85	4455,00
1334,45	4417,00
1340,04	4420,00
1345,63	4386,00
1351,22	4559,00
1356,80	4460,00
1362,37	4642,00
1367,93	4531,00
1373,49	4586,00
1379,05	4570,00
1384,60	4417,00
1390,14	4438,00
1395,68	4483,00
1401,21	4545,00
1406,74	4562,00
1412,26	4625,00
1417,77	4699,00
1423,28	4537,00
1428,78	4706,00
1434,28	4894,00
1439,77	4822,00
1445,26	4834,00
1450,74	4934,00
1456,22	4714,00
1461,68	4732,00
1467,15	4638,00
1472,61	4552,00
1478,06	4477,00
1483,51	4470,00
1488,95	4257,00
1494,38	4458,00
1499,81	4363,00
1505,24	4291,00
1510,65	4288,00
1516,07	4228,00
1521,48	4156,00
1526,88	4121,00
1532,27	4144,00
1537,67	4120,00
1543,05	4108,00
1548,43	4077,00
1553,81	4095,00
1559,18	4026,00
1564,54	4072,00
1569,90	3980,00
1575,25	4053,00
1580,60	3991,00
1585,94	4049,00
1591,28	3951,00
1596,61	4023,00
1601,93	4001,00
1607,25	4008,00
1612,57	3962,00
1617,88	3979,00
1623,18	3991,00
1628,48	3944,00
1633,77	3809,00
1639,06	4064,00
1644,34	3900,00
1649,62	3749,00
1654,89	3910,00
1660,16	3780,00
1665,42	3872,00
1670,67	3759,00
1675,92	3663,00
1681,17	3771,00
1686,41	3766,00
1691,64	3769,00
1696,87	3798,00
1702,10	3749,00
1707,32	3759,00
1712,53	3730,00
1717,74	3593,00
1722,94	3688,00
1728,14	3609,00
1733,33	3679,00
1738,52	3586,00
1743,70	3562,00
1748,88	3581,00
1754,05	3635,00
1759,22	3388,00
1764,38	3575,00
1769,53	3524,00
1774,69	3524,00
1779,83	3327,00
1784,97	3449,00
1790,11	3348,00
1795,24	3368,00
1800,36	3349,00
1805,48	3335,00
1810,60	3427,00
1815,71	3369,00
1820,82	3229,00
1825,92	3322,00
1831,01	3387,00
1836,10	3329,00
1841,19	3349,00
1846,26	3280,00
1851,34	3436,00
1856,41	3377,00
1861,47	3133,00
1866,53	3376,00
1871,59	3302,00
1876,64	3271,00
1881,68	3214,00
1886,72	3237,00
1891,76	3283,00
1896,79	3098,00
1901,81	3093,00
1906,83	3119,00
1911,85	3094,00
1916,86	3046,00
1921,86	3008,00
1926,86	3039,00
1931,86	2985,00
1936,85	3040,00
1941,83	2889,00
1946,81	2964,00
1951,79	2928,00
1956,76	2868,00
1961,72	2790,00
1966,68	2939,00
1971,64	2897,00
1976,59	2888,00
1981,54	2851,00
1986,48	2893,00
1991,42	2757,00
1996,35	3010,00
2001,27	2825,00
2006,20	2753,00
2011,11	2864,00
2016,03	2806,00
2020,93	2712,00
2025,84	2700,00
2030,73	2741,00
2035,63	2695,00
2040,52	2711,00
2045,40	2764,00
2050,28	2718,00
2055,15	2749,00
2060,02	2649,00
2064,89	2760,00
2069,75	2728,00
2074,60	2667,00
2079,46	2672,00
2084,30	2648,00
2089,14	2609,00
2093,98	2667,00
2098,81	2626,00
2103,64	2624,00
2108,46	2686,00
2113,28	2586,00
2118,09	2718,00
2122,90	2578,00
2127,70	2595,00
2132,50	2554,00
2137,30	2575,00
2142,09	2444,00
2146,87	2511,00
2151,66	2574,00
2156,43	2508,00
2161,20	2513,00
2165,97	2462,00
2170,73	2546,00
2175,49	2563,00
2180,24	2478,00
2184,99	2567,00
2189,74	2528,00
2194,48	2452,00
2199,21	2535,00
2203,94	2389,00
2208,67	2323,00
2213,39	2306,00
2218,11	2351,00
2222,82	2353,00
2227,53	2360,00
2232,23	2287,00
2236,93	2304,00
2241,63	2279,00
2246,32	2363,00
2251,00	2328,00
2255,68	2244,00
2260,36	2252,00
2265,03	2325,00
2269,70	2360,00
2274,36	2240,00
2279,02	2338,00
2283,68	2225,00
2288,33	2214,00
2292,97	2258,00
2297,61	2249,00
2302,25	2198,00
2306,88	2206,00
2311,51	2073,00
2316,14	2216,00
2320,75	2189,00
2325,37	2151,00
2329,98	2160,00
2334,59	2200,00
2339,19	2131,00
2343,79	2092,00
2348,38	2188,00
2352,97	1982,00
2357,55	2050,00
2362,13	2043,00
2366,71	1985,00
2371,28	2139,00
2375,85	1979,00
2380,41	2021,00
2384,97	1969,00
2389,52	2041,00
2394,07	2071,00
2398,62	1952,00
2403,16	2061,00
2407,70	1845,00
2412,23	1942,00
2416,76	1962,00
2421,29	2001,00
2425,81	2024,00
2430,32	1966,00
2434,84	1972,00
2439,34	1904,00
2443,85	2035,00
2448,35	1839,00
2452,84	1890,00
2457,33	1944,00
2461,82	1729,00
2466,30	1838,00
2470,78	1824,00
2475,25	1819,00
2479,72	1696,00
2484,19	1802,00
2488,65	1776,00
2493,11	1756,00
2497,56	1811,00
2502,01	1785,00
2506,46	1737,00
2510,90	1730,00
2515,34	1755,00
2519,77	1727,00
2524,20	1749,00
2528,62	1821,00
2533,04	1769,00
2537,46	1659,00
2541,87	1699,00
2546,28	1669,00
2550,68	1786,00
2555,08	1723,00
2559,48	1733,00
2563,87	1504,00
2568,26	1529,00
2572,64	1631,00
2577,02	1613,00
2581,40	1498,00
2585,77	1481,00
2590,14	1528,00
2594,50	1528,00
2598,86	1560,00
2603,22	1509,00
2607,57	1559,00
2611,92	1615,00
2616,26	1569,00
2620,60	1549,00
2624,94	1396,00
2629,27	1501,00
2633,60	1426,00
2637,92	1551,00
2642,24	1494,00
2646,56	1415,00
2650,87	1378,00
2655,18	1524,00
2659,48	1354,00
2663,78	1369,00
2668,08	1307,00
2672,37	1501,00
2676,66	1397,00
2680,95	1364,00
2685,23	1527,00
2689,50	1393,00
2693,78	1378,00
2698,05	1271,00
2702,31	1450,00
2706,57	1498,00
2710,83	1392,00
2715,08	1405,00
2719,33	1484,00
2723,58	1457,00
2727,82	1511,00
2732,06	1326,00
2736,29	1413,00
2740,53	1330,00
2744,75	1364,00
2748,97	1352,00
2753,19	1309,00
2757,41	1341,00
2761,62	1367,00
2765,83	1320,00
2770,03	1311,00
2774,23	1336,00
2778,43	1314,00
2782,62	1297,00
2786,81	1294,00
2791,00	1311,00
2795,18	1218,00
2799,35	1308,00
2803,53	1373,00
2807,70	1273,00
2811,86	1250,00
2816,03	1347,00
2820,19	1279,00
2824,34	1353,00
2828,49	1322,00
2832,64	1290,00
2836,78	1418,00
2840,92	1489,00
2845,06	1584,00
2849,19	1684,00
2853,32	1682,00
2857,45	1659,00
2861,57	1627,00
2865,69	1613,00
2869,80	1587,00
2873,91	1576,00
2878,02	1754,00
2882,12	1613,00
2886,22	1598,00
2890,32	1621,00
2894,41	1699,00
2898,50	1570,00
2902,58	1530,00
2906,67	1461,00
2910,74	1373,00
2914,82	1357,00
2918,89	1445,00
2922,96	1354,00
2927,02	1218,00
2931,08	1188,00
2935,13	1169,00
2939,19	1279,00
2943,24	1195,00
2947,28	1190,00
2951,32	1153,00
2955,36	1080,00
2959,40	1139,00
2963,43	982,00
2967,46	1105,00
2971,48	1053,00
2975,50	943,00
2979,52	1098,00
2983,53	1056,00
2987,54	1032,00
2991,55	1110,00
2995,55	1036,00
2999,55	963,00
3003,54	968,00
3007,54	1004,00
3011,53	916,00
3015,51	971,00
3019,49	969,00
3023,47	875,00
3027,45	956,00
3031,42	885,00
3035,39	813,00
3039,35	871,00
3043,31	986,00
3047,27	901,00
3051,22	986,00
3055,17	910,00
3059,12	892,00
3063,06	977,00
3067,00	862,00
3070,94	867,00
3074,87	894,00
3078,80	927,00
3082,73	878,00
3086,65	816,00
3090,57	861,00
3094,49	795,00
3098,40	875,00
3102,31	747,00
3106,22	832,00
3110,12	801,00
3114,02	651,00
3117,92	754,00
3121,81	812,00
3125,70	789,00
3129,58	799,00
3133,47	804,00
3137,34	779,00
3141,22	863,00
3145,09	689,00
3148,96	764,00
3152,83	798,00
3156,69	798,00
3160,55	785,00
3164,40	879,00
3168,26	772,00
3172,10	820,00
3175,95	863,00
3179,79	836,00
3183,63	847,00
3187,47	727,00
3191,30	757,00
3195,13	712,00
3198,95	688,00
3202,78	748,00
3206,60	744,00
3210,41	791,00
3214,23	734,00
3218,03	716,00
3221,84	652,00
3225,64	740,00
3229,44	630,00
3233,24	718,00
3237,03	673,00
3240,82	660,00
3244,61	631,00
3248,39	728,00
3252,17	791,00
3255,95	704,00
3259,72	665,00
3263,49	790,00
3267,26	639,00
3271,03	707,00
3274,79	678,00
3278,54	683,00
3282,30	655,00
3286,05	731,00
3289,80	709,00
3293,54	601,00
3297,29	667,00
3301,02	669,00
3304,76	690,00
3308,49	658,00
3312,22	590,00
3315,95	585,00
3319,67	544,00
3323,39	669,00
3327,10	667,00
3330,82	633,00
3334,53	640,00
3338,24	613,00
3341,94	631,00
3345,64	578,00
3349,34	576,00
3353,03	686,00
3356,72	586,00
3360,41	582,00
3364,10	571,00
3367,78	559,00
3371,46	540,00
3375,13	608,00
3378,81	553,00
3382,48	538,00
3386,14	601,00
3389,81	570,00
3393,47	625,00
3397,12	622,00
3400,78	551,00
3404,43	588,00
3408,08	613,00
3411,72	526,00
3415,36	519,00
3419,00	635,00
3422,64	561,00
3426,27	632,00
3429,90	563,00
3433,53	506,00
3437,15	611,00
3440,77	529,00
3444,39	524,00
3448,00	526,00
3451,62	504,00
3455,22	549,00
3458,83	479,00
3462,43	584,00
3466,03	599,00
3469,63	510,00
3473,22	507,00
3476,81	456,00
3480,40	573,00
3483,99	470,00
3487,57	485,00
3491,15	582,00
3494,72	571,00
3498,29	619,00
3501,86	532,00
3505,43	561,00
3508,99	501,00
3512,56	292,00
3516,11	569,00
3519,67	534,00
3523,22	510,00
3526,77	428,00
3530,32	605,00
3533,86	563,00
3537,40	550,00
3540,94	541,00
3544,47	553,00
3548,00	501,00
3551,53	579,00
3555,06	442,00
3558,58	526,00
3562,10	510,00
3565,62	452,00
3569,13	542,00
3572,64	615,00
3576,15	409,00
3579,66	465,00
3583,16	481,00
3586,66	561,00
3590,16	487,00
3593,65	498,00
3597,14	480,00
3600,63	509,00
3604,11	422,00
3607,60	512,00
3611,08	507,00
3614,55	471,00
3618,03	498,00
3621,50	372,00
3624,97	397,00
3628,43	435,00
3631,90	396,00
3635,36	335,00
3638,81	419,00
3642,27	406,00
3645,72	518,00
3649,17	408,00
3652,61	447,00
3656,06	440,00
3659,50	427,00
3662,93	505,00
3666,37	462,00
3669,80	627,00
3673,23	497,00
3676,65	408,00
3680,08	449,00
3683,50	427,00
3686,92	372,00
3690,33	392,00
3693,74	416,00
3697,15	402,00
3700,56	515,00
3703,96	498,00
3707,36	245,00
3710,76	413,00
3714,16	408,00
3717,55	454,00
3720,94	395,00
3724,33	456,00
3727,71	440,00
3731,10	426,00
3734,48	449,00
3737,85	394,00
3741,23	422,00
3744,60	389,00
3747,97	338,00
3751,33	545,00
3754,69	401,00
3758,05	399,00
3761,41	417,00
3764,77	349,00
3768,12	385,00
3771,47	343,00
3774,82	371,00
3778,16	-1,00
3781,50	3,00
3784,84	-4,00
3788,18	5,00
>>>>>End Processed Spectral Data<<<<<
