SpectraSuite Data File
++++++++++++++++++++++++++++++++++++
Date: Mon Jan 05 16:26:19 ICT 2026
User: Administrator
Dark Spectrum Present: Yes
Reference Spectrum Present: No
Number of Sampled Component Spectra: 1
Spectrometers: MAYP113682
Integration Time (usec): 3000000 (MAYP113682)
Spectra Averaged: 1 (MAYP113682)
Boxcar Smoothing: 0 (MAYP113682)
Correct for Electrical Dark: No (MAYP113682)
Strobe/Lamp Enabled: No (MAYP113682)
Correct for Detector Non-linearity: No (MAYP113682)
Correct for Stray Light: No (MAYP113682)
Number of Pixels in Processed Spectrum: 2068
>>>>>Begin Processed Spectral Data<<<<<
-37534,58	14,00
-37414,56	8,00
-37295,11	7,00
-37176,24	1,00
-37057,95	276,00
-36940,22	374,00
-36823,05	393,00
-36706,45	420,00
-36590,40	444,00
-36474,90	412,00
-36359,95	417,00
-36245,55	498,00
-36131,68	393,00
-36018,35	482,00
-35905,55	378,00
-35793,29	455,00
-35681,54	406,00
-35570,32	417,00
-35459,62	552,00
-35349,43	541,00
-35239,75	511,00
-35130,58	377,00
-35021,91	445,00
-34913,74	409,00
-34806,07	438,00
-34698,89	455,00
-34592,20	411,00
-34486,00	420,00
-34380,28	482,00
-34275,04	482,00
-34170,27	496,00
-34065,98	569,00
-33962,16	480,00
-33858,81	498,00
-33755,92	411,00
-33653,49	530,00
-33551,52	551,00
-33450,01	455,00
-33348,94	443,00
-33248,33	463,00
-33148,16	460,00
-33048,43	396,00
-32949,14	640,00
-32850,29	558,00
-32751,87	405,00
-32653,89	544,00
-32556,33	519,00
-32459,20	446,00
-32362,49	493,00
-32266,19	529,00
-32170,32	407,00
-32074,86	585,00
-31979,82	543,00
-31885,18	513,00
-31790,95	523,00
-31697,12	560,00
-31603,69	521,00
-31510,67	609,00
-31418,04	531,00
-31325,80	531,00
-31233,95	400,00
-31142,49	508,00
-31051,42	437,00
-30960,73	596,00
-30870,43	512,00
-30780,50	538,00
-30690,95	536,00
-30601,77	618,00
-30512,97	509,00
-30424,53	529,00
-30336,46	397,00
-30248,76	504,00
-30161,42	594,00
-30074,44	497,00
-29987,81	446,00
-29901,55	528,00
-29815,63	484,00
-29730,07	453,00
-29644,86	552,00
-29560,00	479,00
-29475,48	441,00
-29391,30	594,00
-29307,47	464,00
-29223,97	458,00
-29140,81	519,00
-29057,99	526,00
-28975,50	428,00
-28893,34	528,00
-28811,51	464,00
-28730,00	512,00
-28648,82	490,00
-28567,97	533,00
-28487,43	468,00
-28407,21	412,00
-28327,32	420,00
-28247,73	582,00
-28168,46	448,00
-28089,50	530,00
-28010,85	442,00
-27932,51	484,00
-27854,48	417,00
-27776,75	447,00
-27699,32	488,00
-27622,19	488,00
-27545,37	513,00
-27468,84	455,00
-27392,60	443,00
-27316,66	488,00
-27241,01	529,00
-27165,66	435,00
-27090,59	404,00
-27015,81	566,00
-26941,31	448,00
-26867,10	479,00
-26793,17	570,00
-26719,52	506,00
-26646,15	461,00
-26573,06	508,00
-26500,24	436,00
-26427,70	414,00
-26355,43	388,00
-26283,43	478,00
-26211,71	563,00
-26140,25	566,00
-26069,06	512,00
-25998,13	460,00
-25927,46	403,00
-25857,06	426,00
-25786,92	536,00
-25717,04	400,00
-25647,42	489,00
-25578,05	487,00
-25508,94	460,00
-25440,09	527,00
-25371,48	529,00
-25303,13	566,00
-25235,02	436,00
-25167,17	416,00
-25099,56	562,00
-25032,19	477,00
-24965,07	450,00
-24898,20	411,00
-24831,56	438,00
-24765,17	584,00
-24699,01	423,00
-24633,10	562,00
-24567,41	488,00
-24501,97	454,00
-24436,75	501,00
-24371,77	430,00
-24307,03	462,00
-24242,51	510,00
-24178,22	424,00
-24114,16	438,00
-24050,32	494,00
-23986,71	468,00
-23923,32	540,00
-23860,16	478,00
-23797,22	472,00
-23734,50	500,00
-23672,00	405,00
-23609,71	452,00
-23547,65	427,00
-23485,80	571,00
-23424,16	367,00
-23362,74	622,00
-23301,53	523,00
-23240,54	392,00
-23179,75	311,00
-23119,17	417,00
-23058,80	465,00
-22998,64	486,00
-22938,68	453,00
-22878,93	410,00
-22819,39	357,00
-22760,04	478,00
-22700,90	517,00
-22641,96	425,00
-22583,22	487,00
-22524,68	460,00
-22466,33	501,00
-22408,19	508,00
-22350,23	417,00
-22292,48	470,00
-22234,92	519,00
-22177,55	431,00
-22120,37	587,00
-22063,38	438,00
-22006,58	570,00
-21949,98	470,00
-21893,56	408,00
-21837,33	553,00
-21781,28	468,00
-21725,42	495,00
-21669,74	512,00
-21614,25	476,00
-21558,94	430,00
-21503,81	542,00
-21448,86	575,00
-21394,10	420,00
-21339,51	520,00
-21285,10	404,00
-21230,86	436,00
-21176,81	377,00
-21122,93	456,00
-21069,22	369,00
-21015,69	556,00
-20962,33	582,00
-20909,14	410,00
-20856,13	395,00
-20803,28	506,00
-20750,61	482,00
-20698,10	376,00
-20645,76	384,00
-20593,59	513,00
-20541,59	550,00
-20489,75	525,00
-20438,07	343,00
-20386,56	544,00
-20335,22	406,00
-20284,03	523,00
-20233,01	451,00
-20182,15	433,00
-20131,45	419,00
-20080,91	341,00
-20030,52	508,00
-19980,30	487,00
-19930,23	458,00
-19880,32	576,00
-19830,56	458,00
-19780,96	407,00
-19731,52	446,00
-19682,23	481,00
-19633,09	427,00
-19584,10	383,00
-19535,26	486,00
-19486,58	527,00
-19438,04	440,00
-19389,66	549,00
-19341,42	426,00
-19293,33	471,00
-19245,39	484,00
-19197,60	550,00
-19149,95	477,00
-19102,45	523,00
-19055,09	434,00
-19007,87	469,00
-18960,80	510,00
-18913,87	491,00
-18867,09	452,00
-18820,44	618,00
-18773,94	502,00
-18727,57	491,00
-18681,35	435,00
-18635,26	448,00
-18589,31	409,00
-18543,50	485,00
-18497,83	439,00
-18452,29	451,00
-18406,89	386,00
-18361,63	598,00
-18316,50	507,00
-18271,50	432,00
-18226,63	548,00
-18181,90	435,00
-18137,30	524,00
-18092,84	423,00
-18048,50	444,00
-18004,29	431,00
-17960,22	372,00
-17916,27	441,00
-17872,45	505,00
-17828,76	533,00
-17785,20	403,00
-17741,77	478,00
-17698,46	473,00
-17655,28	426,00
-17612,22	499,00
-17569,29	442,00
-17526,48	605,00
-17483,79	590,00
-17441,23	446,00
-17398,79	486,00
-17356,48	444,00
-17314,28	544,00
-17272,21	461,00
-17230,26	544,00
-17188,42	409,00
-17146,71	533,00
-17105,12	414,00
-17063,64	462,00
-17022,28	483,00
-16981,04	368,00
-16939,92	475,00
-16898,91	496,00
-16858,02	463,00
-16817,25	421,00
-16776,59	454,00
-16736,04	455,00
-16695,61	527,00
-16655,29	423,00
-16615,09	398,00
-16574,99	463,00
-16535,01	491,00
-16495,15	525,00
-16455,39	399,00
-16415,74	352,00
-16376,21	493,00
-16336,78	413,00
-16297,46	510,00
-16258,26	385,00
-16219,16	456,00
-16180,17	419,00
-16141,28	503,00
-16102,51	495,00
-16063,84	384,00
-16025,27	477,00
-15986,82	412,00
-15948,46	474,00
-15910,22	477,00
-15872,07	404,00
-15834,04	464,00
-15796,10	426,00
-15758,27	549,00
-15720,54	453,00
-15682,91	438,00
-15645,39	578,00
-15607,97	463,00
-15570,64	374,00
-15533,42	589,00
-15496,30	480,00
-15459,28	522,00
-15422,36	452,00
-15385,54	463,00
-15348,82	533,00
-15312,19	610,00
-15275,66	540,00
-15239,23	595,00
-15202,90	463,00
-15166,67	534,00
-15130,53	543,00
-15094,48	459,00
-15058,54	474,00
-15022,68	482,00
-14986,93	450,00
-14951,26	522,00
-14915,69	568,00
-14880,22	408,00
-14844,84	475,00
-14809,55	478,00
-14774,35	484,00
-14739,25	382,00
-14704,24	553,00
-14669,32	462,00
-14634,49	406,00
-14599,75	532,00
-14565,10	380,00
-14530,55	459,00
-14496,08	476,00
-14461,70	615,00
-14427,41	470,00
-14393,21	381,00
-14359,10	463,00
-14325,07	495,00
-14291,14	443,00
-14257,29	510,00
-14223,52	486,00
-14189,85	456,00
-14156,26	487,00
-14122,76	405,00
-14089,34	427,00
-14056,01	420,00
-14022,76	473,00
-13989,60	476,00
-13956,52	539,00
-13923,53	530,00
-13890,62	430,00
-13857,79	468,00
-13825,05	426,00
-13792,39	409,00
-13759,81	541,00
-13727,31	393,00
-13694,90	468,00
-13662,57	573,00
-13630,31	560,00
-13598,14	487,00
-13566,05	381,00
-13534,05	460,00
-13502,12	435,00
-13470,27	479,00
-13438,50	593,00
-13406,80	378,00
-13375,19	450,00
-13343,66	430,00
-13312,20	505,00
-13280,83	320,00
-13249,53	532,00
-13218,30	408,00
-13187,16	438,00
-13156,09	599,00
-13125,10	413,00
-13094,18	544,00
-13063,34	487,00
-13032,58	485,00
-13001,89	491,00
-12971,28	570,00
-12940,74	440,00
-12910,27	505,00
-12879,88	518,00
-12849,57	508,00
-12819,33	500,00
-12789,16	464,00
-12759,06	424,00
-12729,04	424,00
-12699,09	192,00
-12669,21	450,00
-12639,41	512,00
-12609,68	449,00
-12580,02	448,00
-12550,43	538,00
-12520,91	413,00
-12491,46	442,00
-12462,08	394,00
-12432,77	406,00
-12403,54	390,00
-12374,37	355,00
-12345,27	524,00
-12316,24	436,00
-12287,29	451,00
-12258,40	444,00
-12229,57	521,00
-12200,82	356,00
-12172,14	486,00
-12143,52	385,00
-12114,97	466,00
-12086,49	504,00
-12058,07	519,00
-12029,73	423,00
-12001,44	513,00
-11973,23	468,00
-11945,08	436,00
-11917,00	398,00
-11888,98	432,00
-11861,03	503,00
-11833,15	381,00
-11805,32	480,00
-11777,57	524,00
-11749,88	536,00
-11722,25	369,00
-11694,69	451,00
-11667,19	483,00
-11639,75	527,00
-11612,38	376,00
-11585,07	461,00
-11557,83	400,00
-11530,65	550,00
-11503,53	391,00
-11476,47	468,00
-11449,48	494,00
-11422,54	495,00
-11395,67	459,00
-11368,86	566,00
-11342,11	392,00
-11315,43	481,00
-11288,80	468,00
-11262,23	501,00
-11235,73	535,00
-11209,28	590,00
-11182,90	454,00
-11156,57	444,00
-11130,31	484,00
-11104,10	488,00
-11077,96	436,00
-11051,87	446,00
-11025,84	384,00
-10999,87	454,00
-10973,96	492,00
-10948,11	346,00
-10922,31	502,00
-10896,58	536,00
-10870,90	543,00
-10845,28	475,00
-10819,71	427,00
-10794,20	460,00
-10768,75	477,00
-10743,36	495,00
-10718,02	415,00
-10692,74	419,00
-10667,52	422,00
-10642,35	382,00
-10617,24	465,00
-10592,18	526,00
-10567,18	394,00
-10542,23	424,00
-10517,34	397,00
-10492,51	438,00
-10467,72	408,00
-10443,00	491,00
-10418,32	446,00
-10393,70	499,00
-10369,14	402,00
-10344,63	311,00
-10320,17	340,00
-10295,77	362,00
-10271,42	306,00
-10247,12	337,00
-10222,88	387,00
-10198,68	260,00
-10174,54	402,00
-10150,46	422,00
-10126,42	338,00
-10102,44	264,00
-10078,51	250,00
-10054,63	280,00
-10030,80	262,00
-10007,03	345,00
-9983,30	252,00
-9959,63	241,00
-9936,01	223,00
-9912,44	242,00
-9888,92	157,00
-9865,44	98,00
-9842,02	87,00
-9818,65	180,00
-9795,33	59,00
-9772,06	43,00
-9748,84	-1,00
-9725,67	-78,00
-9702,55	-67,00
-9679,47	-118,00
-9656,45	-177,00
-9633,47	-280,00
-9610,55	-323,00
-9587,67	-268,00
-9564,84	-291,00
-9542,06	-540,00
-9519,32	-569,00
-9496,64	-555,00
-9474,00	-830,00
-9451,41	-849,00
-9428,87	-933,00
-9406,37	-915,00
-9383,92	-932,00
-9361,52	-995,00
-9339,17	-1073,00
-9316,86	-1159,00
-9294,60	-1300,00
-9272,38	-1601,00
-9250,21	-1577,00
-9228,09	-1690,00
-9206,01	-1684,00
-9183,98	-1619,00
-9162,00	-1616,00
-9140,06	-1488,00
-9118,16	-1534,00
-9096,31	-1709,00
-9074,51	-1583,00
-9052,75	-1635,00
-9031,04	-1516,00
-9009,37	-1421,00
-8987,74	-1174,00
-8966,16	-1181,00
-8944,63	-1065,00
-8923,14	-899,00
-8901,69	-959,00
-8880,29	-1086,00
-8858,93	-1033,00
-8837,61	-1152,00
-8816,34	-1250,00
-8795,11	-1214,00
-8773,92	-1271,00
-8752,78	-926,00
-8731,68	-953,00
-8710,62	-862,00
-8689,61	-1066,00
-8668,63	-1091,00
-8647,70	-1093,00
-8626,82	-1108,00
-8605,97	-980,00
-8585,17	-840,00
-8564,41	-829,00
-8543,69	-766,00
-8523,01	-980,00
-8502,37	-818,00
-8481,78	-935,00
-8461,23	-1063,00
-8440,71	-1025,00
-8420,24	-1039,00
-8399,81	-1018,00
-8379,42	-1125,00
-8359,08	-1009,00
-8338,77	-983,00
-8318,50	-997,00
-8298,27	-915,00
-8278,09	-819,00
-8257,94	-850,00
-8237,83	-877,00
-8217,76	-1024,00
-8197,74	-989,00
-8177,75	-799,00
-8157,80	-955,00
-8137,89	-771,00
-8118,02	-719,00
-8098,19	-648,00
-8078,40	-703,00
-8058,65	-741,00
-8038,93	-549,00
-8019,26	-621,00
-7999,62	-484,00
-7980,02	-629,00
-7960,46	-509,00
-7940,94	-622,00
-7921,46	-540,00
-7902,01	-601,00
-7882,60	-426,00
-7863,23	-511,00
-7843,90	-530,00
-7824,61	-491,00
-7805,35	-523,00
-7786,13	-619,00
-7766,95	-568,00
-7747,80	-449,00
-7728,69	-401,00
-7709,62	-415,00
-7690,59	-485,00
-7671,59	-504,00
-7652,63	-652,00
-7633,70	-632,00
-7614,81	-504,00
-7595,96	-444,00
-7577,15	-357,00
-7558,37	-444,00
-7539,62	-454,00
-7520,91	-578,00
-7502,24	-556,00
-7483,60	-530,00
-7465,00	-526,00
-7446,44	-326,00
-7427,91	-350,00
-7409,41	-292,00
-7390,95	-233,00
-7372,53	-328,00
-7354,14	-209,00
-7335,78	-295,00
-7317,46	-329,00
-7299,18	-480,00
-7280,92	-475,00
-7262,71	-521,00
-7244,52	-522,00
-7226,38	-585,00
-7208,26	-582,00
-7190,18	-466,00
-7172,14	-571,00
-7154,12	-369,00
-7136,15	-463,00
-7118,20	-458,00
-7100,29	-508,00
-7082,41	-480,00
-7064,57	-660,00
-7046,76	-399,00
-7028,98	-494,00
-7011,24	-383,00
-6993,53	-310,00
-6975,85	-195,00
-6958,20	-282,00
-6940,59	-189,00
-6923,01	-249,00
-6905,46	-220,00
-6887,94	-378,00
-6870,46	-2654,00
-6853,01	-416,00
-6835,59	-527,00
-6818,21	-411,00
-6800,85	-389,00
-6783,53	-390,00
-6766,24	-310,00
-6748,98	-149,00
-6731,76	-199,00
-6714,56	-181,00
-6697,40	-170,00
-6680,26	-204,00
-6663,16	-203,00
-6646,09	-223,00
-6629,05	-263,00
-6612,05	-472,00
-6595,07	-519,00
-6578,13	-393,00
-6561,21	-313,00
-6544,33	-13,00
-6527,47	-168,00
-6510,65	-59,00
-6493,86	-175,00
-6477,10	-224,00
-6460,36	-38,00
-6443,66	-126,00
-6426,99	-156,00
-6410,35	-69,00
-6393,74	-23,00
-6377,16	-230,00
-6360,61	-223,00
-6344,09	-351,00
-6327,59	-300,00
-6311,13	-94,00
-6294,70	-210,00
-6278,29	-244,00
-6261,92	-293,00
-6245,58	-370,00
-6229,26	-318,00
-6212,97	-269,00
-6196,72	-247,00
-6180,49	-61,00
-6164,29	11,00
-6148,12	210,00
-6131,98	203,00
-6115,86	37,00
-6099,78	95,00
-6083,72	119,00
-6067,69	92,00
-6051,69	25,00
-6035,72	143,00
-6019,78	147,00
-6003,87	40,00
-5987,98	-157,00
-5972,12	-176,00
-5956,29	-250,00
-5940,49	-173,00
-5924,71	128,00
-5908,96	54,00
-5893,24	68,00
-5877,55	127,00
-5861,89	145,00
-5846,25	-194,00
-5830,64	42,00
-5815,05	1,00
-5799,50	-8,00
-5783,97	137,00
-5768,47	73,00
-5752,99	82,00
-5737,55	-234,00
-5722,12	-241,00
-5706,73	-162,00
-5691,36	-94,00
-5676,02	77,00
-5660,71	82,00
-5645,42	156,00
-5630,16	150,00
-5614,92	81,00
-5599,71	-164,00
-5584,53	-42,00
-5569,37	-141,00
-5554,24	828,00
-5539,14	6,00
-5524,06	78,00
-5509,01	44,00
-5493,98	-61,00
-5478,98	-104,00
-5464,00	-200,00
-5449,05	-7,00
-5434,13	71,00
-5419,23	77,00
-5404,36	11,00
-5389,51	-25,00
-5374,69	-191,00
-5359,89	-228,00
-5345,12	-191,00
-5330,37	-125,00
-5315,65	-82,00
-5300,95	50,00
-5286,28	45,00
-5271,63	-111,00
-5257,01	-93,00
-5242,41	-27,00
-5227,84	-63,00
-5213,29	70,00
-5198,76	222,00
-5184,26	281,00
-5169,79	222,00
-5155,33	96,00
-5140,91	-35,00
-5126,51	-185,00
-5112,13	-103,00
-5097,77	17,00
-5083,44	245,00
-5069,13	163,00
-5054,85	205,00
-5040,59	81,00
-5026,36	-14,00
-5012,15	48,00
-4997,96	4,00
-4983,80	138,00
-4969,66	119,00
-4955,54	194,00
-4941,44	190,00
-4927,37	-36,00
-4913,33	-130,00
-4899,30	-234,00
-4885,30	-125,00
-4871,33	-57,00
-4857,37	151,00
-4843,44	170,00
-4829,53	284,00
-4815,65	195,00
-4801,79	-60,00
-4787,95	112,00
-4774,13	27,00
-4760,34	211,00
-4746,56	373,00
-4732,82	217,00
-4719,09	195,00
-4705,38	63,00
-4691,70	-74,00
-4678,04	67,00
-4664,41	243,00
-4650,79	292,00
-4637,20	281,00
-4623,63	198,00
-4610,08	256,00
-4596,56	-27,00
-4583,05	-5,00
-4569,57	80,00
-4556,11	299,00
-4542,67	313,00
-4529,25	284,00
-4515,86	174,00
-4502,49	47,00
-4489,13	76,00
-4475,80	218,00
-4462,49	123,00
-4449,21	363,00
-4435,94	343,00
-4422,70	165,00
-4409,47	23,00
-4396,27	157,00
-4383,09	136,00
-4369,93	341,00
-4356,79	344,00
-4343,67	374,00
-4330,58	311,00
-4317,50	279,00
-4304,45	218,00
-4291,41	257,00
-4278,40	402,00
-4265,41	344,00
-4252,44	295,00
-4239,49	226,00
-4226,55	257,00
-4213,65	243,00
-4200,76	463,00
-4187,89	512,00
-4175,04	344,00
-4162,21	248,00
-4149,40	352,00
-4136,61	406,00
-4123,85	419,00
-4111,10	391,00
-4098,37	437,00
-4085,66	444,00
-4072,98	453,00
-4060,31	364,00
-4047,66	476,00
-4035,04	495,00
-4022,43	383,00
-4009,84	424,00
-3997,27	338,00
-3984,72	458,00
-3972,19	448,00
-3959,69	518,00
-3947,20	501,00
-3934,73	457,00
-3922,27	392,00
-3909,84	411,00
-3897,43	546,00
-3885,04	483,00
-3872,67	505,00
-3860,31	436,00
-3847,98	589,00
-3835,66	449,00
-3823,36	497,00
-3811,09	454,00
-3798,83	460,00
-3786,59	452,00
-3774,37	541,00
-3762,17	376,00
-3749,98	473,00
-3737,82	505,00
-3725,67	574,00
-3713,55	479,00
-3701,44	602,00
-3689,35	393,00
-3677,28	566,00
-3665,22	424,00
-3653,19	508,00
-3641,17	429,00
-3629,18	510,00
-3617,20	504,00
-3605,24	433,00
-3593,30	567,00
-3581,37	479,00
-3569,47	503,00
-3557,58	469,00
-3545,71	469,00
-3533,86	556,00
-3522,02	441,00
-3510,21	581,00
-3498,41	479,00
-3486,63	493,00
-3474,87	462,00
-3463,12	431,00
-3451,40	477,00
-3439,69	468,00
-3428,00	485,00
-3416,33	458,00
-3404,67	432,00
-3393,03	486,00
-3381,41	573,00
-3369,81	524,00
-3358,22	598,00
-3346,66	545,00
-3335,10	551,00
-3323,57	515,00
-3312,06	528,00
-3300,56	520,00
-3289,08	430,00
-3277,61	458,00
-3266,16	385,00
-3254,73	417,00
-3243,32	386,00
-3231,92	423,00
-3220,55	514,00
-3209,18	657,00
-3197,84	444,00
-3186,51	464,00
-3175,20	475,00
-3163,90	460,00
-3152,63	575,00
-3141,36	464,00
-3130,12	510,00
-3118,89	519,00
-3107,68	419,00
-3096,49	518,00
-3085,31	482,00
-3074,15	505,00
-3063,00	448,00
-3051,87	428,00
-3040,76	371,00
-3029,67	590,00
-3018,59	618,00
-3007,52	658,00
-2996,48	463,00
-2985,44	549,00
-2974,43	415,00
-2963,43	404,00
-2952,45	538,00
-2941,48	499,00
-2930,53	467,00
-2919,60	410,00
-2908,68	531,00
-2897,78	495,00
-2886,89	553,00
-2876,02	525,00
-2865,17	437,00
-2854,33	494,00
-2843,50	474,00
-2832,70	408,00
-2821,90	464,00
-2811,13	558,00
-2800,37	524,00
-2789,62	347,00
-2778,89	538,00
-2768,18	501,00
-2757,48	465,00
-2746,80	526,00
-2736,13	425,00
-2725,48	553,00
-2714,84	371,00
-2704,22	451,00
-2693,61	482,00
-2683,02	421,00
-2672,45	546,00
-2661,89	571,00
-2651,34	487,00
-2640,81	529,00
-2630,30	620,00
-2619,80	442,00
-2609,31	569,00
-2598,84	404,00
-2588,39	545,00
-2577,95	484,00
-2567,52	411,00
-2557,11	440,00
-2546,71	491,00
-2536,33	595,00
-2525,97	552,00
-2515,62	571,00
-2505,28	466,00
-2494,96	452,00
-2484,65	524,00
-2474,36	683,00
-2464,08	389,00
-2453,82	598,00
-2443,57	510,00
-2433,33	449,00
-2423,11	533,00
-2412,91	449,00
-2402,72	401,00
-2392,54	523,00
-2382,38	481,00
-2372,23	469,00
-2362,09	1145,00
-2351,97	436,00
-2341,87	430,00
-2331,78	465,00
-2321,70	518,00
-2311,64	491,00
-2301,59	534,00
-2291,55	490,00
-2281,53	557,00
-2271,53	363,00
-2261,53	575,00
-2251,55	513,00
-2241,59	501,00
-2231,64	490,00
-2221,70	465,00
-2211,78	469,00
-2201,87	488,00
-2191,97	507,00
-2182,09	461,00
-2172,22	508,00
-2162,37	391,00
-2152,53	411,00
-2142,70	508,00
-2132,89	444,00
-2123,09	526,00
-2113,30	490,00
-2103,53	459,00
-2093,77	587,00
-2084,02	578,00
-2074,29	555,00
-2064,57	466,00
-2054,86	595,00
-2045,17	545,00
-2035,49	508,00
-2025,82	417,00
-2016,17	423,00
-2006,53	444,00
-1996,91	462,00
-1987,29	502,00
-1977,69	493,00
-1968,11	401,00
-1958,53	470,00
-1948,97	428,00
-1939,42	446,00
-1929,89	461,00
-1920,37	531,00
-1910,86	488,00
-1901,36	438,00
-1891,88	513,00
-1882,41	416,00
-1872,95	440,00
-1863,51	569,00
-1854,08	551,00
-1844,66	527,00
-1835,26	529,00
-1825,86	516,00
-1816,48	379,00
-1807,11	543,00
-1797,76	508,00
-1788,42	507,00
-1779,09	478,00
-1769,77	501,00
-1760,47	616,00
-1751,17	484,00
-1741,89	469,00
-1732,63	493,00
-1723,37	630,00
-1714,13	615,00
-1704,90	543,00
-1695,68	561,00
-1686,48	379,00
-1677,29	469,00
-1668,11	600,00
-1658,94	417,00
-1649,78	457,00
-1640,64	515,00
-1631,51	477,00
-1622,39	515,00
-1613,28	457,00
-1604,19	493,00
-1595,10	519,00
-1586,03	473,00
-1576,97	533,00
-1567,93	464,00
-1558,89	501,00
-1549,87	507,00
-1540,86	431,00
-1531,86	474,00
-1522,87	511,00
-1513,90	499,00
-1504,93	517,00
-1495,98	643,00
-1487,04	562,00
-1478,12	459,00
-1469,20	516,00
-1460,30	468,00
-1451,40	571,00
-1442,52	515,00
-1433,65	692,00
-1424,80	414,00
-1415,95	446,00
-1407,12	646,00
-1398,30	451,00
-1389,48	543,00
-1380,69	400,00
-1371,90	450,00
-1363,12	562,00
-1354,36	609,00
-1345,60	460,00
-1336,86	513,00
-1328,13	532,00
-1319,41	551,00
-1310,70	515,00
-1302,01	362,00
-1293,32	411,00
-1284,65	486,00
-1275,99	487,00
-1267,33	619,00
-1258,69	530,00
-1250,06	499,00
-1241,45	524,00
-1232,84	598,00
-1224,25	453,00
-1215,66	478,00
-1207,09	525,00
-1198,53	497,00
-1189,97	497,00
-1181,43	429,00
-1172,91	407,00
-1164,39	523,00
-1155,88	475,00
-1147,38	399,00
-1138,90	479,00
-1130,43	443,00
-1121,96	464,00
-1113,51	496,00
-1105,07	554,00
-1096,64	522,00
-1088,22	427,00
-1079,81	486,00
-1071,41	606,00
-1063,02	515,00
-1054,65	638,00
-1046,28	489,00
-1037,92	538,00
-1029,58	431,00
-1021,24	572,00
-1012,92	677,00
-1004,61	554,00
-996,30	614,00
-988,01	389,00
-979,73	501,00
-971,46	537,00
-963,20	505,00
-954,95	410,00
-946,71	553,00
-938,48	524,00
-930,26	569,00
-922,06	497,00
-913,86	414,00
-905,67	438,00
-897,49	532,00
-889,33	335,00
-881,17	488,00
-873,02	502,00
-864,89	368,00
-856,76	452,00
-848,65	508,00
-840,54	579,00
-832,45	516,00
-824,36	442,00
-816,29	493,00
-808,22	507,00
-800,17	578,00
-792,12	431,00
-784,09	469,00
-776,06	469,00
-768,05	526,00
-760,04	416,00
-752,05	493,00
-744,07	403,00
-736,09	577,00
-728,13	364,00
-720,17	487,00
-712,23	488,00
-704,29	424,00
-696,37	531,00
-688,45	519,00
-680,55	462,00
-672,65	508,00
-664,77	455,00
-656,89	492,00
-649,03	449,00
-641,17	552,00
-633,32	505,00
-625,49	532,00
-617,66	512,00
-609,84	580,00
-602,03	448,00
-594,23	510,00
-586,45	528,00
-578,67	562,00
-570,90	544,00
-563,14	436,00
-555,39	534,00
-547,65	552,00
-539,91	420,00
-532,19	525,00
-524,48	550,00
-516,78	466,00
-509,08	566,00
-501,40	530,00
-493,72	460,00
-486,06	457,00
-478,40	520,00
-470,76	403,00
-463,12	480,00
-455,49	467,00
-447,87	539,00
-440,26	509,00
-432,66	458,00
-425,07	498,00
-417,49	600,00
-409,92	395,00
-402,35	465,00
-394,80	420,00
-387,25	541,00
-379,72	499,00
-372,19	604,00
-364,67	616,00
-357,17	411,00
-349,67	636,00
-342,18	450,00
-334,69	500,00
-327,22	476,00
-319,76	556,00
-312,30	475,00
-304,86	446,00
-297,42	583,00
-290,00	527,00
-282,58	526,00
-275,17	576,00
-267,77	601,00
-260,37	569,00
-252,99	664,00
-245,62	699,00
-238,25	531,00
-230,90	560,00
-223,55	480,00
-216,21	566,00
-208,88	629,00
-201,56	603,00
-194,25	645,00
-186,94	657,00
-179,65	696,00
-172,36	782,00
-165,08	687,00
-157,81	757,00
-150,55	843,00
-143,30	800,00
-136,06	758,00
-128,82	894,00
-121,60	834,00
-114,38	1000,00
-107,17	1108,00
-99,97	1225,00
-92,78	1212,00
-85,60	1338,00
-78,42	1540,00
-71,25	1655,00
-64,10	1819,00
-56,95	1963,00
-49,81	2384,00
-42,67	2852,00
-35,55	3388,00
-28,43	4371,00
-21,33	6813,00
-14,23	21602,00
-7,14	57498,00
-0,05	57284,00
7,02	57012,00
14,09	57319,00
21,14	18855,00
28,19	8138,00
35,23	5360,00
42,27	4396,00
49,29	3507,00
56,31	3077,00
63,32	2758,00
70,32	2330,00
77,31	2097,00
84,29	1870,00
91,27	1786,00
98,23	1716,00
105,19	1764,00
112,14	2158,00
119,09	3968,00
126,02	6951,00
132,95	8849,00
139,87	9362,00
146,78	9674,00
153,68	9712,00
160,58	9598,00
167,46	9583,00
174,34	9680,00
181,21	9624,00
188,08	9602,00
194,93	9725,00
201,78	9713,00
208,62	9805,00
215,45	9921,00
222,27	10009,00
229,09	9947,00
235,90	9764,00
242,70	9766,00
249,49	9843,00
256,27	9735,00
263,05	9754,00
269,82	9794,00
276,58	9824,00
283,33	9748,00
290,08	9697,00
296,82	9692,00
303,55	9502,00
310,27	9564,00
316,98	9411,00
323,69	9318,00
330,39	9469,00
337,08	9500,00
343,76	9423,00
350,44	9402,00
357,11	9385,00
363,77	9503,00
370,42	9395,00
377,07	9297,00
383,71	9336,00
390,34	9453,00
396,96	9573,00
403,58	9501,00
410,19	9439,00
416,79	9578,00
423,38	9488,00
429,97	9594,00
436,55	9297,00
443,12	9307,00
449,68	9181,00
456,24	8958,00
462,79	9309,00
469,33	9016,00
475,86	9030,00
482,39	9025,00
488,91	9108,00
495,42	8917,00
501,93	9022,00
508,42	8844,00
514,91	8735,00
521,40	8754,00
527,87	8816,00
534,34	8743,00
540,80	8798,00
547,25	8757,00
553,70	8815,00
560,14	8821,00
566,57	8806,00
573,00	8691,00
579,41	8688,00
585,83	8752,00
592,23	8737,00
598,62	8708,00
605,01	8653,00
611,40	8641,00
617,77	8529,00
624,14	8488,00
630,50	8541,00
636,85	8449,00
643,20	8493,00
649,54	8397,00
655,87	8396,00
662,20	8316,00
668,52	8279,00
674,83	8163,00
681,13	8160,00
687,43	8184,00
693,72	8060,00
700,00	8179,00
706,28	8148,00
712,55	8151,00
718,81	8134,00
725,07	8168,00
731,32	8073,00
737,56	8189,00
743,79	8034,00
750,02	8159,00
756,24	7955,00
762,46	7949,00
768,67	8176,00
774,87	8153,00
781,06	7834,00
787,25	8082,00
793,43	7958,00
799,60	8108,00
805,77	8095,00
811,93	7928,00
818,08	7929,00
824,23	7974,00
830,37	7958,00
836,50	7869,00
842,63	7817,00
848,75	7812,00
854,87	7707,00
860,97	7728,00
867,07	7639,00
873,17	7573,00
879,25	7637,00
885,33	7672,00
891,41	7677,00
897,47	7488,00
903,53	7465,00
909,59	7563,00
915,63	7513,00
921,67	7521,00
927,71	7510,00
933,74	7559,00
939,76	7263,00
945,77	7460,00
951,78	7500,00
957,78	7363,00
963,78	7515,00
969,77	7400,00
975,75	7436,00
981,72	7470,00
987,69	8058,00
993,66	7594,00
999,61	7485,00
1005,56	7391,00
1011,51	7388,00
1017,44	7425,00
1023,37	7356,00
1029,30	7393,00
1035,22	7451,00
1041,13	7452,00
1047,03	7371,00
1052,93	7522,00
1058,83	7712,00
1064,71	7845,00
1070,59	7619,00
1076,47	7501,00
1082,33	7458,00
1088,20	7275,00
1094,05	7307,00
1099,90	7179,00
1105,74	7225,00
1111,58	7192,00
1117,41	7243,00
1123,23	7460,00
1129,05	7522,00
1134,86	7496,00
1140,67	7427,00
1146,47	7267,00
1152,26	7202,00
1158,05	7176,00
1163,83	7176,00
1169,60	7281,00
1175,37	7170,00
1181,13	7113,00
1186,89	7026,00
1192,64	7150,00
1198,38	7319,00
1204,12	7150,00
1209,85	7170,00
1215,58	7170,00
1221,30	7084,00
1227,02	7276,00
1232,72	7093,00
1238,43	7195,00
1244,12	7201,00
1249,81	7171,00
1255,50	7293,00
1261,17	7165,00
1266,85	7098,00
1272,51	7264,00
1278,17	7252,00
1283,83	7298,00
1289,47	7406,00
1295,12	7660,00
1300,75	7715,00
1306,38	7477,00
1312,01	7282,00
1317,63	7253,00
1323,24	7245,00
1328,85	7069,00
1334,45	7148,00
1340,04	7060,00
1345,63	7163,00
1351,22	7203,00
1356,80	7115,00
1362,37	7270,00
1367,93	7218,00
1373,49	7196,00
1379,05	7168,00
1384,60	7267,00
1390,14	7184,00
1395,68	7145,00
1401,21	7170,00
1406,74	7221,00
1412,26	7405,00
1417,77	7399,00
1423,28	7351,00
1428,78	7420,00
1434,28	7693,00
1439,77	7683,00
1445,26	7684,00
1450,74	7693,00
1456,22	7488,00
1461,68	7417,00
1467,15	7539,00
1472,61	7233,00
1478,06	7189,00
1483,51	7061,00
1488,95	6949,00
1494,38	6972,00
1499,81	6803,00
1505,24	6874,00
1510,65	6743,00
1516,07	6827,00
1521,48	6756,00
1526,88	6588,00
1532,27	6681,00
1537,67	6641,00
1543,05	6660,00
1548,43	6487,00
1553,81	6622,00
1559,18	6505,00
1564,54	6643,00
1569,90	6444,00
1575,25	6365,00
1580,60	6371,00
1585,94	6500,00
1591,28	6439,00
1596,61	6363,00
1601,93	6326,00
1607,25	6384,00
1612,57	6278,00
1617,88	6473,00
1623,18	6446,00
1628,48	6242,00
1633,77	6212,00
1639,06	6210,00
1644,34	6202,00
1649,62	6022,00
1654,89	6164,00
1660,16	6058,00
1665,42	6220,00
1670,67	6127,00
1675,92	6019,00
1681,17	6071,00
1686,41	6083,00
1691,64	6005,00
1696,87	5976,00
1702,10	5840,00
1707,32	5966,00
1712,53	5747,00
1717,74	5820,00
1722,94	5895,00
1728,14	5777,00
1733,33	5744,00
1738,52	5587,00
1743,70	5575,00
1748,88	5612,00
1754,05	5703,00
1759,22	5480,00
1764,38	5556,00
1769,53	5648,00
1774,69	5513,00
1779,83	5387,00
1784,97	5516,00
1790,11	5519,00
1795,24	5392,00
1800,36	5410,00
1805,48	5313,00
1810,60	5409,00
1815,71	5334,00
1820,82	5219,00
1825,92	5281,00
1831,01	5215,00
1836,10	5355,00
1841,19	5339,00
1846,26	5148,00
1851,34	5345,00
1856,41	5295,00
1861,47	5081,00
1866,53	5415,00
1871,59	5181,00
1876,64	5246,00
1881,68	5194,00
1886,72	5102,00
1891,76	5155,00
1896,79	5109,00
1901,81	5002,00
1906,83	4993,00
1911,85	4835,00
1916,86	4893,00
1921,86	4746,00
1926,86	4862,00
1931,86	4853,00
1936,85	4711,00
1941,83	4705,00
1946,81	4689,00
1951,79	4652,00
1956,76	4643,00
1961,72	4532,00
1966,68	4600,00
1971,64	4609,00
1976,59	4540,00
1981,54	4630,00
1986,48	4560,00
1991,42	4408,00
1996,35	4631,00
2001,27	4523,00
2006,20	4408,00
2011,11	4572,00
2016,03	4368,00
2020,93	4357,00
2025,84	4453,00
2030,73	4339,00
2035,63	4306,00
2040,52	4315,00
2045,40	4425,00
2050,28	4344,00
2055,15	4383,00
2060,02	4252,00
2064,89	4292,00
2069,75	4328,00
2074,60	4271,00
2079,46	4192,00
2084,30	4258,00
2089,14	4023,00
2093,98	4217,00
2098,81	4281,00
2103,64	4288,00
2108,46	4233,00
2113,28	4202,00
2118,09	4213,00
2122,90	4168,00
2127,70	4103,00
2132,50	4176,00
2137,30	4068,00
2142,09	4040,00
2146,87	3978,00
2151,66	3973,00
2156,43	3868,00
2161,20	3976,00
2165,97	3969,00
2170,73	3999,00
2175,49	3943,00
2180,24	3867,00
2184,99	4074,00
2189,74	4032,00
2194,48	3892,00
2199,21	3868,00
2203,94	3840,00
2208,67	3756,00
2213,39	3645,00
2218,11	3825,00
2222,82	3688,00
2227,53	3739,00
2232,23	3694,00
2236,93	3753,00
2241,63	3656,00
2246,32	3713,00
2251,00	3675,00
2255,68	3617,00
2260,36	3590,00
2265,03	3595,00
2269,70	3644,00
2274,36	3599,00
2279,02	3629,00
2283,68	3535,00
2288,33	3503,00
2292,97	3544,00
2297,61	3404,00
2302,25	3507,00
2306,88	3461,00
2311,51	3411,00
2316,14	3476,00
2320,75	3391,00
2325,37	3286,00
2329,98	3408,00
2334,59	3416,00
2339,19	3398,00
2343,79	3265,00
2348,38	3301,00
2352,97	3184,00
2357,55	3167,00
2362,13	3095,00
2366,71	3151,00
2371,28	3268,00
2375,85	3151,00
2380,41	3284,00
2384,97	3078,00
2389,52	3137,00
2394,07	3156,00
2398,62	3071,00
2403,16	3262,00
2407,70	2951,00
2412,23	2959,00
2416,76	2989,00
2421,29	3024,00
2425,81	3068,00
2430,32	3016,00
2434,84	2858,00
2439,34	2875,00
2443,85	3021,00
2448,35	2832,00
2452,84	2845,00
2457,33	2948,00
2461,82	2784,00
2466,30	2802,00
2470,78	2843,00
2475,25	2823,00
2479,72	2759,00
2484,19	2823,00
2488,65	2758,00
2493,11	2699,00
2497,56	2759,00
2502,01	2638,00
2506,46	2738,00
2510,90	2605,00
2515,34	2579,00
2519,77	2726,00
2524,20	2646,00
2528,62	2628,00
2533,04	2736,00
2537,46	2618,00
2541,87	2666,00
2546,28	2639,00
2550,68	2646,00
2555,08	2584,00
2559,48	2526,00
2563,87	2423,00
2568,26	2508,00
2572,64	2442,00
2577,02	2416,00
2581,40	2341,00
2585,77	2385,00
2590,14	2354,00
2594,50	2255,00
2598,86	2273,00
2603,22	2278,00
2607,57	2207,00
2611,92	2271,00
2616,26	2353,00
2620,60	2358,00
2624,94	2310,00
2629,27	2300,00
2633,60	2244,00
2637,92	2300,00
2642,24	2259,00
2646,56	2165,00
2650,87	2049,00
2655,18	2203,00
2659,48	2051,00
2663,78	2056,00
2668,08	2092,00
2672,37	2175,00
2676,66	2120,00
2680,95	2040,00
2685,23	2222,00
2689,50	2010,00
2693,78	2184,00
2698,05	2018,00
2702,31	2058,00
2706,57	2144,00
2710,83	2200,00
2715,08	2139,00
2719,33	2080,00
2723,58	2099,00
2727,82	2182,00
2732,06	2018,00
2736,29	2061,00
2740,53	2029,00
2744,75	1979,00
2748,97	2023,00
2753,19	1988,00
2757,41	1986,00
2761,62	1984,00
2765,83	2010,00
2770,03	1967,00
2774,23	2007,00
2778,43	1855,00
2782,62	1952,00
2786,81	1898,00
2791,00	1950,00
2795,18	1924,00
2799,35	1975,00
2803,53	1957,00
2807,70	1923,00
2811,86	1981,00
2816,03	1936,00
2820,19	1895,00
2824,34	1857,00
2828,49	1903,00
2832,64	2060,00
2836,78	2114,00
2840,92	2109,00
2845,06	2325,00
2849,19	2413,00
2853,32	2479,00
2857,45	2428,00
2861,57	2369,00
2865,69	2498,00
2869,80	2327,00
2873,91	2407,00
2878,02	2350,00
2882,12	2541,00
2886,22	2451,00
2890,32	2380,00
2894,41	2346,00
2898,50	2355,00
2902,58	2271,00
2906,67	2098,00
2910,74	2154,00
2914,82	1950,00
2918,89	2105,00
2922,96	1889,00
2927,02	1858,00
2931,08	1884,00
2935,13	1734,00
2939,19	1824,00
2943,24	1732,00
2947,28	1773,00
2951,32	1524,00
2955,36	1568,00
2959,40	1647,00
2963,43	1500,00
2967,46	1538,00
2971,48	1497,00
2975,50	1392,00
2979,52	1517,00
2983,53	1532,00
2987,54	1497,00
2991,55	1404,00
2995,55	1364,00
2999,55	1418,00
3003,54	1334,00
3007,54	1401,00
3011,53	1400,00
3015,51	1322,00
3019,49	1359,00
3023,47	1240,00
3027,45	1294,00
3031,42	1252,00
3035,39	1211,00
3039,35	1237,00
3043,31	1275,00
3047,27	1318,00
3051,22	1191,00
3055,17	1210,00
3059,12	1266,00
3063,06	1265,00
3067,00	1141,00
3070,94	1166,00
3074,87	1312,00
3078,80	1209,00
3082,73	1209,00
3086,65	1131,00
3090,57	1200,00
3094,49	1126,00
3098,40	1070,00
3102,31	1077,00
3106,22	1154,00
3110,12	1024,00
3114,02	1121,00
3117,92	1067,00
3121,81	1065,00
3125,70	1124,00
3129,58	921,00
3133,47	919,00
3137,34	1131,00
3141,22	1096,00
3145,09	1047,00
3148,96	1178,00
3152,83	1088,00
3156,69	1086,00
3160,55	1020,00
3164,40	1030,00
3168,26	964,00
3172,10	1049,00
3175,95	1045,00
3179,79	1098,00
3183,63	1084,00
3187,47	965,00
3191,30	1056,00
3195,13	943,00
3198,95	949,00
3202,78	975,00
3206,60	926,00
3210,41	880,00
3214,23	900,00
3218,03	916,00
3221,84	927,00
3225,64	868,00
3229,44	864,00
3233,24	805,00
3237,03	935,00
3240,82	839,00
3244,61	871,00
3248,39	801,00
3252,17	838,00
3255,95	888,00
3259,72	882,00
3263,49	1016,00
3267,26	862,00
3271,03	803,00
3274,79	813,00
3278,54	865,00
3282,30	721,00
3286,05	860,00
3289,80	898,00
3293,54	788,00
3297,29	792,00
3301,02	723,00
3304,76	739,00
3308,49	801,00
3312,22	772,00
3315,95	787,00
3319,67	727,00
3323,39	903,00
3327,10	765,00
3330,82	777,00
3334,53	803,00
3338,24	816,00
3341,94	785,00
3345,64	773,00
3349,34	707,00
3353,03	798,00
3356,72	799,00
3360,41	778,00
3364,10	655,00
3367,78	785,00
3371,46	667,00
3375,13	677,00
3378,81	739,00
3382,48	672,00
3386,14	737,00
3389,81	707,00
3393,47	756,00
3397,12	839,00
3400,78	674,00
3404,43	846,00
3408,08	673,00
3411,72	625,00
3415,36	663,00
3419,00	689,00
3422,64	680,00
3426,27	641,00
3429,90	750,00
3433,53	593,00
3437,15	631,00
3440,77	619,00
3444,39	586,00
3448,00	661,00
3451,62	681,00
3455,22	590,00
3458,83	604,00
3462,43	674,00
3466,03	703,00
3469,63	558,00
3473,22	664,00
3476,81	570,00
3480,40	696,00
3483,99	625,00
3487,57	641,00
3491,15	676,00
3494,72	698,00
3498,29	734,00
3501,86	580,00
3505,43	528,00
3508,99	519,00
3512,56	473,00
3516,11	633,00
3519,67	620,00
3523,22	558,00
3526,77	485,00
3530,32	741,00
3533,86	613,00
3537,40	687,00
3540,94	562,00
3544,47	574,00
3548,00	472,00
3551,53	621,00
3555,06	549,00
3558,58	585,00
3562,10	565,00
3565,62	468,00
3569,13	517,00
3572,64	661,00
3576,15	524,00
3579,66	498,00
3583,16	525,00
3586,66	556,00
3590,16	447,00
3593,65	535,00
3597,14	533,00
3600,63	517,00
3604,11	512,00
3607,60	584,00
3611,08	588,00
3614,55	526,00
3618,03	519,00
3621,50	437,00
3624,97	450,00
3628,43	459,00
3631,90	548,00
3635,36	423,00
3638,81	521,00
3642,27	440,00
3645,72	545,00
3649,17	536,00
3652,61	476,00
3656,06	481,00
3659,50	547,00
3662,93	596,00
3666,37	525,00
3669,80	666,00
3673,23	527,00
3676,65	533,00
3680,08	502,00
3683,50	431,00
3686,92	421,00
3690,33	465,00
3693,74	535,00
3697,15	452,00
3700,56	567,00
3703,96	417,00
3707,36	393,00
3710,76	449,00
3714,16	495,00
3717,55	410,00
3720,94	376,00
3724,33	412,00
3727,71	450,00
3731,10	476,00
3734,48	384,00
3737,85	356,00
3741,23	457,00
3744,60	454,00
3747,97	308,00
3751,33	513,00
3754,69	361,00
3758,05	452,00
3761,41	403,00
3764,77	335,00
3768,12	374,00
3771,47	348,00
3774,82	409,00
3778,16	-4,00
3781,50	9,00
3784,84	0,00
3788,18	8,00
>>>>>End Processed Spectral Data<<<<<
